# bioPlux Text File Format
# Version: 1
# StartDateTime: 2018-08-23 11:25:23
# SamplingFrequency: 1000
# SampledChannels: 5
# SamplingResolution: 12
# AcquiringDevice: 00:07:80:40:DD:D2
# EndOfHeader
0	0	0	2074
1	0	0	2075
2	0	0	2063
3	0	0	2059
4	0	0	2051
5	0	0	2059
6	0	0	2051
7	0	0	2062
8	0	0	2067
9	0	0	2063
10	0	0	2070
11	0	0	2079
12	0	0	2073
13	0	0	2065
14	0	0	2053
15	0	0	2062
16	0	0	2064
17	0	0	2066
18	0	0	2066
19	0	0	2064
20	0	0	2067
21	0	0	2064
22	0	0	2063
23	0	0	2067
24	0	0	2076
25	0	0	2068
26	0	0	2066
27	0	0	2065
28	0	0	2061
29	0	0	2064
30	0	0	2064
31	0	0	2066
32	0	0	2065
33	0	0	2065
34	0	0	2068
35	0	0	2069
36	0	0	2062
37	0	0	2063
38	0	0	2066
39	0	0	2067
40	0	0	2064
41	0	0	2061
42	0	0	2063
43	0	0	2062
44	0	0	2063
45	0	0	2066
46	0	0	2064
47	0	0	2072
48	0	0	2073
49	0	0	2071
50	0	0	2068
51	0	0	2066
52	0	0	2064
53	0	0	2059
54	0	0	2049
55	0	0	2040
56	0	0	2062
57	0	0	2076
58	0	0	2075
59	0	0	2066
60	0	0	2067
61	0	0	2068
62	0	0	2071
63	0	0	2072
64	0	0	2068
65	0	0	2058
66	0	0	2056
67	0	0	2067
68	0	0	2059
69	0	0	2059
70	0	0	2065
71	0	0	2069
72	0	0	2071
73	0	0	2072
74	0	0	2071
75	0	0	2074
76	0	0	2067
77	0	0	2070
78	0	0	2063
79	0	0	2060
80	0	0	2057
81	0	0	2064
82	0	0	2070
83	0	0	2063
84	0	0	2066
85	0	0	2067
86	0	0	2056
87	0	0	2069
88	0	0	2070
89	0	0	2073
90	0	0	2074
91	0	0	2060
92	0	0	2075
93	0	0	2062
94	0	0	2059
95	0	0	2066
96	0	0	2069
97	0	0	2066
98	0	0	2066
99	0	0	2066
100	0	0	2053
101	0	0	2067
102	0	0	2076
103	0	0	2068
104	0	0	2070
105	0	0	2072
106	0	0	2071
107	0	0	2068
108	0	0	2050
109	0	0	2052
110	0	0	2059
111	0	0	2065
112	0	0	2072
113	0	0	2074
114	0	0	2072
115	0	0	2074
116	0	0	2070
117	0	0	2070
118	0	0	2065
119	0	0	2059
120	0	0	2054
121	0	0	2065
122	0	0	2069
123	0	0	2069
124	0	0	2076
125	0	0	2073
126	0	0	2071
127	0	0	2066
0	0	0	2062
1	0	0	2056
2	0	0	2059
3	0	0	2051
4	0	0	2068
5	0	0	2079
6	0	0	2070
7	0	0	2054
8	0	0	2053
9	0	0	2071
10	0	0	2065
11	0	0	2069
12	0	0	2067
13	0	0	2071
14	0	0	2066
15	0	0	2063
16	0	0	2066
17	0	0	2066
18	0	0	2068
19	0	0	2064
20	0	0	2072
21	0	0	2072
22	0	0	2068
23	0	0	2060
24	0	0	2064
25	0	0	2063
26	0	0	2066
27	0	0	2066
28	0	0	2068
29	0	0	2061
30	0	0	2066
31	0	0	2067
32	0	0	2060
33	0	0	2049
34	0	0	2068
35	0	0	2064
36	0	0	2063
37	0	0	2060
38	0	0	2065
39	0	0	2059
40	0	0	2072
41	0	0	2070
42	0	0	2065
43	0	0	2071
44	0	0	2066
45	0	0	2064
46	0	0	2062
47	0	0	2055
48	0	0	2058
49	0	0	2070
50	0	0	2066
51	0	0	2070
52	0	0	2073
53	0	0	2071
54	0	0	2066
55	0	0	2059
56	0	0	2061
57	0	0	2061
58	0	0	2057
59	0	0	2068
60	0	0	2071
61	0	0	2071
62	0	0	2064
63	0	0	2066
64	0	0	2064
65	0	0	2065
66	0	0	2066
67	0	0	2064
68	0	0	2066
69	0	0	2070
70	0	0	2064
71	0	0	2063
72	0	0	2055
73	0	0	2060
74	0	0	2063
75	0	0	2069
76	0	0	2071
77	0	0	2076
78	0	0	2075
79	0	0	2071
80	0	0	2067
81	0	0	2061
82	0	0	2067
83	0	0	2058
84	0	0	2055
85	0	0	2069
86	0	0	2065
87	0	0	2063
88	0	0	2060
89	0	0	2054
90	0	0	2071
91	0	0	2060
92	0	0	2057
93	0	0	2075
94	0	0	2084
95	0	0	2063
96	0	0	2064
97	0	0	2076
98	0	0	2072
99	0	0	2072
100	0	0	2068
101	0	0	2062
102	0	0	2060
103	0	0	2063
104	0	0	2066
105	0	0	2070
106	0	0	2068
107	0	0	2072
108	0	0	2062
109	0	0	2067
110	0	0	2073
111	0	0	2062
112	0	0	2062
113	0	0	2054
114	0	0	2060
115	0	0	2063
116	0	0	2068
117	0	0	2065
118	0	0	2071
119	0	0	2067
120	0	0	2065
121	0	0	2068
122	0	0	2067
123	0	0	2065
124	0	0	2063
125	0	0	2064
126	0	0	2069
127	0	0	2078
0	0	0	2077
1	0	0	2079
2	0	0	2066
3	0	0	2070
4	0	0	2059
5	0	0	2051
6	0	0	2031
7	0	0	2051
8	0	0	2072
9	0	0	2073
10	0	0	2068
11	0	0	2071
12	0	0	2070
13	0	0	2067
14	0	0	2065
15	0	0	2065
16	0	0	2067
17	0	0	2067
18	0	0	2066
19	0	0	2066
20	0	0	2069
21	0	0	2066
22	0	0	2069
23	0	0	2067
24	0	0	2066
25	0	0	2063
26	0	0	2065
27	0	0	2059
28	0	0	2059
29	0	0	2073
30	0	0	2068
31	0	0	2072
32	0	0	2067
33	0	0	2062
34	0	0	2066
35	0	0	2062
36	0	0	2066
37	0	0	2074
38	0	0	2072
39	0	0	2067
40	0	0	2053
41	0	0	2055
42	0	0	2045
43	0	0	2049
44	0	0	2070
45	0	0	2076
46	0	0	2070
47	0	0	2071
48	0	0	2073
49	0	0	2079
50	0	0	2075
51	0	0	2068
52	0	0	2065
53	0	0	2052
54	0	0	2044
55	0	0	2062
56	0	0	2071
57	0	0	2075
58	0	0	2075
59	0	0	2067
60	0	0	2065
61	0	0	2058
62	0	0	2054
63	0	0	2071
64	0	0	2067
65	0	0	2074
66	0	0	2074
67	0	0	2071
68	0	0	2070
69	0	0	2069
70	0	0	2065
71	0	0	2061
72	0	0	2063
73	0	0	2058
74	0	0	2065
75	0	0	2070
76	0	0	2067
77	0	0	2064
78	0	0	2064
79	0	0	2054
80	0	0	2063
81	0	0	2073
82	0	0	2071
83	0	0	2069
84	0	0	2063
85	0	0	2061
86	0	0	2055
87	0	0	2054
88	0	0	2066
89	0	0	2072
90	0	0	2072
91	0	0	2068
92	0	0	2066
93	0	0	2065
94	0	0	2062
95	0	0	2064
96	0	0	2071
97	0	0	2068
98	0	0	2064
99	0	0	2057
100	0	0	2063
101	0	0	2069
102	0	0	2066
103	0	0	2069
104	0	0	2064
105	0	0	2069
106	0	0	2060
107	0	0	2064
108	0	0	2057
109	0	0	2062
110	0	0	2067
111	0	0	2059
112	0	0	2065
113	0	0	2068
114	0	0	2064
115	0	0	2064
116	0	0	2073
117	0	0	2074
118	0	0	2072
119	0	0	2067
120	0	0	2071
121	0	0	2064
122	0	0	2063
123	0	0	2062
124	0	0	2055
125	0	0	2048
126	0	0	2060
127	0	0	2071
0	0	0	2078
1	0	0	2073
2	0	0	2071
3	0	0	2066
4	0	0	2060
5	0	0	2052
6	0	0	2049
7	0	0	2072
8	0	0	2070
9	0	0	2059
10	0	0	2064
11	0	0	2064
12	0	0	2069
13	0	0	2064
14	0	0	2064
15	0	0	2062
16	0	0	2062
17	0	0	2071
18	0	0	2074
19	0	0	2070
20	0	0	2074
21	0	0	2066
22	0	0	2064
23	0	0	2065
24	0	0	2061
25	0	0	2063
26	0	0	2062
27	0	0	2067
28	0	0	2064
29	0	0	2064
30	0	0	2064
31	0	0	2063
32	0	0	2065
33	0	0	2063
34	0	0	2073
35	0	0	2074
36	0	0	2069
37	0	0	2071
38	0	0	2067
39	0	0	2062
40	0	0	2053
41	0	0	2057
42	0	0	2046
43	0	0	2045
44	0	0	2071
45	0	0	2075
46	0	0	2075
47	0	0	2076
48	0	0	2075
49	0	0	2074
50	0	0	2065
51	0	0	2054
52	0	0	2052
53	0	0	2067
54	0	0	2063
55	0	0	2059
56	0	0	2069
57	0	0	2067
58	0	0	2066
59	0	0	2065
60	0	0	2070
61	0	0	2066
62	0	0	2068
63	0	0	2067
64	0	0	2067
65	0	0	2063
66	0	0	2060
67	0	0	2069
68	0	0	2068
69	0	0	2066
70	0	0	2066
71	0	0	2065
72	0	0	2069
73	0	0	2060
74	0	0	2065
75	0	0	2069
76	0	0	2075
77	0	0	2068
78	0	0	2069
79	0	0	2066
80	0	0	2060
81	0	0	2063
82	0	0	2060
83	0	0	2060
84	0	0	2066
85	0	0	2068
86	0	0	2067
87	0	0	2074
88	0	0	2066
89	0	0	2064
90	0	0	2067
91	0	0	2061
92	0	0	2063
93	0	0	2068
94	0	0	2071
95	0	0	2078
96	0	0	2076
97	0	0	2071
98	0	0	2058
99	0	0	2055
100	0	0	2051
101	0	0	2046
102	0	0	2071
103	0	0	2073
104	0	0	2069
105	0	0	2070
106	0	0	2066
107	0	0	2064
108	0	0	2060
109	0	0	2066
110	0	0	2070
111	0	0	2070
112	0	0	2073
113	0	0	2066
114	0	0	2068
115	0	0	2063
116	0	0	2058
117	0	0	2061
118	0	0	2071
119	0	0	2075
120	0	0	2067
121	0	0	2056
122	0	0	2063
123	0	0	2061
124	0	0	2061
125	0	0	2066
126	0	0	2067
127	0	0	2060
0	0	0	2057
1	0	0	2073
2	0	0	2075
3	0	0	2076
4	0	0	2065
5	0	0	2060
6	0	0	2062
7	0	0	2053
8	0	0	2071
9	0	0	2072
10	0	0	2072
11	0	0	2068
12	0	0	2061
13	0	0	2068
14	0	0	2063
15	0	0	2063
16	0	0	2071
17	0	0	2068
18	0	0	2065
19	0	0	2069
20	0	0	2071
21	0	0	2065
22	0	0	2062
23	0	0	2062
24	0	0	2059
25	0	0	2066
26	0	0	2065
27	0	0	2072
28	0	0	2071
29	0	0	2064
30	0	0	2064
31	0	0	2057
32	0	0	2062
33	0	0	2063
34	0	0	2068
35	0	0	2067
36	0	0	2065
37	0	0	2051
38	0	0	2073
39	0	0	2078
40	0	0	2073
41	0	0	2062
42	0	0	2064
43	0	0	2065
44	0	0	2062
45	0	0	2059
46	0	0	2060
47	0	0	2063
48	0	0	2066
49	0	0	2070
50	0	0	2068
51	0	0	2065
52	0	0	2064
53	0	0	2067
54	0	0	2058
55	0	0	2062
56	0	0	2069
57	0	0	2070
58	0	0	2070
59	0	0	2068
60	0	0	2068
61	0	0	2066
62	0	0	2065
63	0	0	2068
64	0	0	2064
65	0	0	2062
66	0	0	2049
67	0	0	2041
68	0	0	2069
69	0	0	2078
70	0	0	2076
71	0	0	2074
72	0	0	2072
73	0	0	2070
74	0	0	2071
75	0	0	2065
76	0	0	2064
77	0	0	2060
78	0	0	2064
79	0	0	2066
80	0	0	2067
81	0	0	2063
82	0	0	2054
83	0	0	2053
84	0	0	2043
85	0	0	2067
86	0	0	2080
87	0	0	2073
88	0	0	2069
89	0	0	2073
90	0	0	2060
91	0	0	2065
92	0	0	2071
93	0	0	2071
94	0	0	2071
95	0	0	2060
96	0	0	2057
97	0	0	2063
98	0	0	2069
99	0	0	2068
100	0	0	2066
101	0	0	2069
102	0	0	2068
103	0	0	2063
104	0	0	2060
105	0	0	2052
106	0	0	2064
107	0	0	2071
108	0	0	2075
109	0	0	2066
110	0	0	2055
111	0	0	2066
112	0	0	2074
113	0	0	2073
114	0	0	2070
115	0	0	2072
116	0	0	2068
117	0	0	2065
118	0	0	2060
119	0	0	2061
120	0	0	2064
121	0	0	2064
122	0	0	2068
123	0	0	2070
124	0	0	2068
125	0	0	2065
126	0	0	2063
127	0	0	2065
0	0	0	2060
1	0	0	2060
2	0	0	2066
3	0	0	2072
4	0	0	2069
5	0	0	2070
6	0	0	2068
7	0	0	2056
8	0	0	2054
9	0	0	2064
10	0	0	2072
11	0	0	2070
12	0	0	2064
13	0	0	2067
14	0	0	2071
15	0	0	2065
16	0	0	2065
17	0	0	2061
18	0	0	2066
19	0	0	2067
20	0	0	2064
21	0	0	2068
22	0	0	2066
23	0	0	2060
24	0	0	2065
25	0	0	2067
26	0	0	2068
27	0	0	2068
28	0	0	2067
29	0	0	2070
30	0	0	2062
31	0	0	2056
32	0	0	2063
33	0	0	2065
34	0	0	2068
35	0	0	2068
36	0	0	2072
37	0	0	2066
38	0	0	2058
39	0	0	2066
40	0	0	2069
41	0	0	2064
42	0	0	2066
43	0	0	2066
44	0	0	2066
45	0	0	2066
46	0	0	2069
47	0	0	2070
48	0	0	2065
49	0	0	2067
50	0	0	2056
51	0	0	2051
52	0	0	2050
53	0	0	2071
54	0	0	2072
55	0	0	2067
56	0	0	2068
57	0	0	2072
58	0	0	2067
59	0	0	2065
60	0	0	2068
61	0	0	2067
62	0	0	2070
63	0	0	2057
64	0	0	2056
65	0	0	2071
66	0	0	2072
67	0	0	2064
68	0	0	2061
69	0	0	2052
70	0	0	2058
71	0	0	2059
72	0	0	2064
73	0	0	2071
74	0	0	2070
75	0	0	2066
76	0	0	2072
77	0	0	2069
78	0	0	2063
79	0	0	2061
80	0	0	2062
81	0	0	2069
82	0	0	2067
83	0	0	2070
84	0	0	2069
85	0	0	2075
86	0	0	2061
87	0	0	2063
88	0	0	2072
89	0	0	2063
90	0	0	2061
91	0	0	2061
92	0	0	2069
93	0	0	2065
94	0	0	2069
95	0	0	2068
96	0	0	2063
97	0	0	2063
98	0	0	2065
99	0	0	2065
100	0	0	2070
101	0	0	2069
102	0	0	2070
103	0	0	2064
104	0	0	2063
105	0	0	2064
106	0	0	2063
107	0	0	2068
108	0	0	2071
109	0	0	2068
110	0	0	2067
111	0	0	2064
112	0	0	2060
113	0	0	2062
114	0	0	2062
115	0	0	2070
116	0	0	2072
117	0	0	2065
118	0	0	2061
119	0	0	2060
120	0	0	2062
121	0	0	2058
122	0	0	2065
123	0	0	2064
124	0	0	2062
125	0	0	2067
126	0	0	2071
127	0	0	2069
0	0	0	2068
1	0	0	2069
2	0	0	2067
3	0	0	2065
4	0	0	2069
5	0	0	2066
6	0	0	2067
7	0	0	2065
8	0	0	2067
9	0	0	2067
10	0	0	2064
11	0	0	2067
12	0	0	2068
13	0	0	2062
14	0	0	2064
15	0	0	2067
16	0	0	2063
17	0	0	2065
18	0	0	2070
19	0	0	2069
20	0	0	2070
21	0	0	2070
22	0	0	2068
23	0	0	2064
24	0	0	2063
25	0	0	2063
26	0	0	2058
27	0	0	2052
28	0	0	2050
29	0	0	2072
30	0	0	2073
31	0	0	2067
32	0	0	2068
33	0	0	2067
34	0	0	2055
35	0	0	2062
36	0	0	2068
37	0	0	2071
38	0	0	2066
39	0	0	2068
40	0	0	2075
41	0	0	2067
42	0	0	2060
43	0	0	2056
44	0	0	2052
45	0	0	2063
46	0	0	2060
47	0	0	2072
48	0	0	2075
49	0	0	2071
50	0	0	2075
51	0	0	2066
52	0	0	2063
53	0	0	2060
54	0	0	2063
55	0	0	2063
56	0	0	2065
57	0	0	2071
58	0	0	2072
59	0	0	2066
60	0	0	2062
61	0	0	2056
62	0	0	2050
63	0	0	2065
64	0	0	2068
65	0	0	2067
66	0	0	2068
67	0	0	2064
68	0	0	2063
69	0	0	2066
70	0	0	2069
71	0	0	2068
72	0	0	2067
73	0	0	2062
74	0	0	2067
75	0	0	2073
76	0	0	2071
77	0	0	2064
78	0	0	2058
79	0	0	2048
80	0	0	2061
81	0	0	2065
82	0	0	2070
83	0	0	2069
84	0	0	2062
85	0	0	2060
86	0	0	2062
87	0	0	2067
88	0	0	2071
89	0	0	2074
90	0	0	2068
91	0	0	2067
92	0	0	2066
93	0	0	2066
94	0	0	2067
95	0	0	2067
96	0	0	2065
97	0	0	2064
98	0	0	2064
99	0	0	2057
100	0	0	2056
101	0	0	2067
102	0	0	2068
103	0	0	2070
104	0	0	2065
105	0	0	2068
106	0	0	2070
107	0	0	2067
108	0	0	2069
109	0	0	2068
110	0	0	2066
111	0	0	2063
112	0	0	2065
113	0	0	2064
114	0	0	2070
115	0	0	2067
116	0	0	2065
117	0	0	2071
118	0	0	2067
119	0	0	2064
120	0	0	2060
121	0	0	2067
122	0	0	2064
123	0	0	2060
124	0	0	2063
125	0	0	2055
126	0	0	2055
127	0	0	2072
0	0	0	2073
1	0	0	2069
2	0	0	2060
3	0	0	2060
4	0	0	2064
5	0	0	2067
6	0	0	2057
7	0	0	2062
8	0	0	2065
9	0	0	2076
10	0	0	2076
11	0	0	2077
12	0	0	2074
13	0	0	2075
14	0	0	2072
15	0	0	2055
16	0	0	2035
17	0	0	2038
18	0	0	2057
19	0	0	2072
20	0	0	2072
21	0	0	2077
22	0	0	2075
23	0	0	2073
24	0	0	2070
25	0	0	2069
26	0	0	2066
27	0	0	2065
28	0	0	2062
29	0	0	2065
30	0	0	2065
31	0	0	2066
32	0	0	2062
33	0	0	2064
34	0	0	2080
35	0	0	2073
36	0	0	2069
37	0	0	2066
38	0	0	2063
39	0	0	2056
40	0	0	2064
41	0	0	2059
42	0	0	2056
43	0	0	2067
44	0	0	2063
45	0	0	2070
46	0	0	2070
47	0	0	2067
48	0	0	2062
49	0	0	2073
50	0	0	2073
51	0	0	2068
52	0	0	2048
53	0	0	2043
54	0	0	2042
55	0	0	2072
56	0	0	2084
57	0	0	2074
58	0	0	2072
59	0	0	2075
60	0	0	2071
61	0	0	2079
62	0	0	2077
63	0	0	2076
64	0	0	2069
65	0	0	2065
66	0	0	2048
67	0	0	2053
68	0	0	2035
69	0	0	2035
70	0	0	2065
71	0	0	2079
72	0	0	2076
73	0	0	2077
74	0	0	2070
75	0	0	2072
76	0	0	2070
77	0	0	2067
78	0	0	2066
79	0	0	2050
80	0	0	2067
81	0	0	2076
82	0	0	2080
83	0	0	2080
84	0	0	2068
85	0	0	2049
86	0	0	2052
87	0	0	2050
88	0	0	2055
89	0	0	2048
90	0	0	2066
91	0	0	2071
92	0	0	2058
93	0	0	2086
94	0	0	2079
95	0	0	2073
96	0	0	2074
97	0	0	2064
98	0	0	2059
99	0	0	2057
100	0	0	2062
101	0	0	2068
102	0	0	2046
103	0	0	2064
104	0	0	2073
105	0	0	2078
106	0	0	2064
107	0	0	2067
108	0	0	2061
109	0	0	2054
110	0	0	2054
111	0	0	2061
112	0	0	2067
113	0	0	2062
114	0	0	2069
115	0	0	2082
116	0	0	2079
117	0	0	2076
118	0	0	2060
119	0	0	2068
120	0	0	2061
121	0	0	2049
122	0	0	2067
123	0	0	2061
124	0	0	2052
125	0	0	2067
126	0	0	2061
127	0	0	2071
0	0	0	2074
1	0	0	2081
2	0	0	2076
3	0	0	2073
4	0	0	2066
5	0	0	2048
6	0	0	2039
7	0	0	2056
8	0	0	2076
9	0	0	2070
10	0	0	2054
11	0	0	2051
12	0	0	2063
13	0	0	2069
14	0	0	2074
15	0	0	2072
16	0	0	2071
17	0	0	2061
18	0	0	2062
19	0	0	2069
20	0	0	2067
21	0	0	2065
22	0	0	2075
23	0	0	2074
24	0	0	2067
25	0	0	2066
26	0	0	2058
27	0	0	2063
28	0	0	2060
29	0	0	2060
30	0	0	2062
31	0	0	2066
32	0	0	2072
33	0	0	2076
34	0	0	2073
35	0	0	2062
36	0	0	2052
37	0	0	2053
38	0	0	2060
39	0	0	2069
40	0	0	2066
41	0	0	2076
42	0	0	2074
43	0	0	2068
44	0	0	2066
45	0	0	2067
46	0	0	2050
47	0	0	2043
48	0	0	2065
49	0	0	2071
50	0	0	2078
51	0	0	2077
52	0	0	2075
53	0	0	2069
54	0	0	2073
55	0	0	2063
56	0	0	2068
57	0	0	2063
58	0	0	2061
59	0	0	2057
60	0	0	2063
61	0	0	2071
62	0	0	2072
63	0	0	2065
64	0	0	2062
65	0	0	2065
66	0	0	2067
67	0	0	2062
68	0	0	2062
69	0	0	2072
70	0	0	2064
71	0	0	2061
72	0	0	2064
73	0	0	2067
74	0	0	2068
75	0	0	2065
76	0	0	2075
77	0	0	2065
78	0	0	2059
79	0	0	2049
80	0	0	2052
81	0	0	2071
82	0	0	2076
83	0	0	2073
84	0	0	2070
85	0	0	2079
86	0	0	2066
87	0	0	2062
88	0	0	2066
89	0	0	2063
90	0	0	2043
91	0	0	2041
92	0	0	2050
93	0	0	2079
94	0	0	2076
95	0	0	2072
96	0	0	2060
97	0	0	2075
98	0	0	2083
99	0	0	2066
100	0	0	2063
101	0	0	2054
102	0	0	2056
103	0	0	2068
104	0	0	2075
105	0	0	2069
106	0	0	2068
107	0	0	2068
108	0	0	2065
109	0	0	2058
110	0	0	2073
111	0	0	2072
112	0	0	2068
113	0	0	2059
114	0	0	2042
115	0	0	2062
116	0	0	2068
117	0	0	2073
118	0	0	2066
119	0	0	2063
120	0	0	2067
121	0	0	2066
122	0	0	2082
123	0	0	2067
124	0	0	2061
125	0	0	2061
126	0	0	2050
127	0	0	2063
0	0	0	2065
1	0	0	2066
2	0	0	2072
3	0	0	2068
4	0	0	2071
5	0	0	2066
6	0	0	2063
7	0	0	2060
8	0	0	2066
9	0	0	2068
10	0	0	2061
11	0	0	2045
12	0	0	2052
13	0	0	2067
14	0	0	2073
15	0	0	2077
16	0	0	2070
17	0	0	2074
18	0	0	2071
19	0	0	2051
20	0	0	2059
21	0	0	2052
22	0	0	2063
23	0	0	2072
24	0	0	2070
25	0	0	2075
26	0	0	2080
27	0	0	2081
28	0	0	2074
29	0	0	2065
30	0	0	2032
31	0	0	2052
32	0	0	2051
33	0	0	2040
34	0	0	2072
35	0	0	2077
36	0	0	2083
37	0	0	2065
38	0	0	2055
39	0	0	2079
40	0	0	2086
41	0	0	2070
42	0	0	2072
43	0	0	2063
44	0	0	2027
45	0	0	2053
46	0	0	2065
47	0	0	2080
48	0	0	2079
49	0	0	2070
50	0	0	2061
51	0	0	2066
52	0	0	2064
53	0	0	2059
54	0	0	2053
55	0	0	2071
56	0	0	2076
57	0	0	2081
58	0	0	2084
59	0	0	2077
60	0	0	2066
61	0	0	2072
62	0	0	2067
63	0	0	2050
64	0	0	2045
65	0	0	2023
66	0	0	2078
67	0	0	2066
68	0	0	2070
69	0	0	2064
70	0	0	2059
71	0	0	2071
72	0	0	2063
73	0	0	2071
74	0	0	2083
75	0	0	2079
76	0	0	2068
77	0	0	2067
78	0	0	2064
79	0	0	2066
80	0	0	2062
81	0	0	2061
82	0	0	2074
83	0	0	2080
84	0	0	2067
85	0	0	2066
86	0	0	2063
87	0	0	2049
88	0	0	2042
89	0	0	2070
90	0	0	2084
91	0	0	2078
92	0	0	2079
93	0	0	2067
94	0	0	2043
95	0	0	2057
96	0	0	2041
97	0	0	2041
98	0	0	2078
99	0	0	2087
100	0	0	2066
101	0	0	2061
102	0	0	2063
103	0	0	2075
104	0	0	2077
105	0	0	2065
106	0	0	2058
107	0	0	2067
108	0	0	2069
109	0	0	2071
110	0	0	2074
111	0	0	2063
112	0	0	2068
113	0	0	2080
114	0	0	2079
115	0	0	2080
116	0	0	2064
117	0	0	2064
118	0	0	2064
119	0	0	2057
120	0	0	2065
121	0	0	2051
122	0	0	2040
123	0	0	2044
124	0	0	2022
125	0	0	2070
126	0	0	2081
127	0	0	2086
0	0	0	2064
1	0	0	2072
2	0	0	2088
3	0	0	2084
4	0	0	2058
5	0	0	2051
6	0	0	2071
7	0	0	2091
8	0	0	2076
9	0	0	2057
10	0	0	2064
11	0	0	2060
12	0	0	2074
13	0	0	2055
14	0	0	2061
15	0	0	2067
16	0	0	2074
17	0	0	2092
18	0	0	2089
19	0	0	2043
20	0	0	2031
21	0	0	2044
22	0	0	2056
23	0	0	2075
24	0	0	2083
25	0	0	2087
26	0	0	2060
27	0	0	2075
28	0	0	2068
29	0	0	2083
30	0	0	2056
31	0	0	2062
32	0	0	2071
33	0	0	2018
34	0	0	2001
35	0	0	2039
36	0	0	2072
37	0	0	2071
38	0	0	2099
39	0	0	2103
40	0	0	2088
41	0	0	2090
42	0	0	2076
43	0	0	2063
44	0	0	2023
45	0	0	2038
46	0	0	2088
47	0	0	2091
48	0	0	2080
49	0	0	2056
50	0	0	2034
51	0	0	2032
52	0	0	2054
53	0	0	2032
54	0	0	2074
55	0	0	2109
56	0	0	2076
57	0	0	2069
58	0	0	2077
59	0	0	2064
60	0	0	2066
61	0	0	2090
62	0	0	2103
63	0	0	2079
64	0	0	2031
65	0	0	2030
66	0	0	2014
67	0	0	2089
68	0	0	2137
69	0	0	2097
70	0	0	2051
71	0	0	2031
72	0	0	2025
73	0	0	2028
74	0	0	2011
75	0	0	2094
76	0	0	2107
77	0	0	2109
78	0	0	2075
79	0	0	2082
80	0	0	2050
81	0	0	2113
82	0	0	2103
83	0	0	2073
84	0	0	2002
85	0	0	2003
86	0	0	2069
87	0	0	2066
88	0	0	2026
89	0	0	2049
90	0	0	2125
91	0	0	2057
92	0	0	2035
93	0	0	2087
94	0	0	2088
95	0	0	2077
96	0	0	2086
97	0	0	2101
98	0	0	2094
99	0	0	2087
100	0	0	2071
101	0	0	2077
102	0	0	2060
103	0	0	2027
104	0	0	2022
105	0	0	2040
106	0	0	2075
107	0	0	2055
108	0	0	2042
109	0	0	2032
110	0	0	2017
111	0	0	2067
112	0	0	2097
113	0	0	2078
114	0	0	2079
115	0	0	2064
116	0	0	2082
117	0	0	2120
118	0	0	2095
119	0	0	2052
120	0	0	2082
121	0	0	2079
122	0	0	2072
123	0	0	2052
124	0	0	2069
125	0	0	2063
126	0	0	2081
127	0	0	2089
0	0	0	2063
1	0	0	2004
2	0	0	2016
3	0	0	2085
4	0	0	2117
5	0	0	2095
6	0	0	2066
7	0	0	2031
8	0	0	2005
9	0	0	2066
10	0	0	2074
11	0	0	2048
12	0	0	2073
13	0	0	2085
14	0	0	2049
15	0	0	2058
16	0	0	2045
17	0	0	2001
18	0	0	2028
19	0	0	2128
20	0	0	2126
21	0	0	2079
22	0	0	2055
23	0	0	2082
24	0	0	2081
25	0	0	2080
26	0	0	2070
27	0	0	2031
28	0	0	2050
29	0	0	2010
30	0	0	2022
31	0	0	2109
32	0	0	2129
33	0	0	2096
34	0	0	2075
35	0	0	2033
36	0	0	2090
37	0	0	2079
38	0	0	2033
39	0	0	1997
40	0	0	1976
41	0	0	2057
42	0	0	2100
43	0	0	2108
44	0	0	2061
45	0	0	2118
46	0	0	2170
47	0	0	2118
48	0	0	2017
49	0	0	1932
50	0	0	1976
51	0	0	2003
52	0	0	2033
53	0	0	2145
54	0	0	2137
55	0	0	2112
56	0	0	2044
57	0	0	2066
58	0	0	2075
59	0	0	2066
60	0	0	2072
61	0	0	2077
62	0	0	2118
63	0	0	2148
64	0	0	2075
65	0	0	2039
66	0	0	2035
67	0	0	1975
68	0	0	1989
69	0	0	2065
70	0	0	2078
71	0	0	2048
72	0	0	2063
73	0	0	2128
74	0	0	2142
75	0	0	2114
76	0	0	2061
77	0	0	2044
78	0	0	2050
79	0	0	2018
80	0	0	1974
81	0	0	1999
82	0	0	2101
83	0	0	2122
84	0	0	2094
85	0	0	2118
86	0	0	2131
87	0	0	2077
88	0	0	2062
89	0	0	2006
90	0	0	1897
91	0	0	2004
92	0	0	2071
93	0	0	2107
94	0	0	2124
95	0	0	2106
96	0	0	2097
97	0	0	2091
98	0	0	2105
99	0	0	2073
100	0	0	2041
101	0	0	2004
102	0	0	2055
103	0	0	2065
104	0	0	2057
105	0	0	2087
106	0	0	2092
107	0	0	2051
108	0	0	2088
109	0	0	2068
110	0	0	2044
111	0	0	2076
112	0	0	2138
113	0	0	2092
114	0	0	2045
115	0	0	2019
116	0	0	2138
117	0	0	2039
118	0	0	1985
119	0	0	2031
120	0	0	2110
121	0	0	2133
122	0	0	2033
123	0	0	2017
124	0	0	2001
125	0	0	2030
126	0	0	2100
127	0	0	2107
0	0	0	2073
1	0	0	2061
2	0	0	2040
3	0	0	2105
4	0	0	2132
5	0	0	2072
6	0	0	2014
7	0	0	2040
8	0	0	2045
9	0	0	2075
10	0	0	2079
11	0	0	2103
12	0	0	2110
13	0	0	2088
14	0	0	2101
15	0	0	2071
16	0	0	2128
17	0	0	2117
18	0	0	2059
19	0	0	2035
20	0	0	2002
21	0	0	1945
22	0	0	1940
23	0	0	1959
24	0	0	2031
25	0	0	2100
26	0	0	2103
27	0	0	2091
28	0	0	2099
29	0	0	2172
30	0	0	2211
31	0	0	2132
32	0	0	2067
33	0	0	2045
34	0	0	1970
35	0	0	2034
36	0	0	1958
37	0	0	1958
38	0	0	2029
39	0	0	2045
40	0	0	2088
41	0	0	2112
42	0	0	2131
43	0	0	2139
44	0	0	2143
45	0	0	2110
46	0	0	2113
47	0	0	2141
48	0	0	2130
49	0	0	2037
50	0	0	1991
51	0	0	1972
52	0	0	2009
53	0	0	1993
54	0	0	2038
55	0	0	2080
56	0	0	2053
57	0	0	2068
58	0	0	2036
59	0	0	2046
60	0	0	2080
61	0	0	2034
62	0	0	2163
63	0	0	2189
64	0	0	2142
65	0	0	2116
66	0	0	2067
67	0	0	2026
68	0	0	1882
69	0	0	1814
70	0	0	2049
71	0	0	2117
72	0	0	2126
73	0	0	2096
74	0	0	2064
75	0	0	2166
76	0	0	2179
77	0	0	2135
78	0	0	2029
79	0	0	2056
80	0	0	2072
81	0	0	2025
82	0	0	2034
83	0	0	2037
84	0	0	1979
85	0	0	2007
86	0	0	1970
87	0	0	2064
88	0	0	2136
89	0	0	2122
90	0	0	2078
91	0	0	2107
92	0	0	2083
93	0	0	2107
94	0	0	2036
95	0	0	2056
96	0	0	2070
97	0	0	2044
98	0	0	2107
99	0	0	2109
100	0	0	2087
101	0	0	2108
102	0	0	2027
103	0	0	2108
104	0	0	2046
105	0	0	2031
106	0	0	2071
107	0	0	2062
108	0	0	2034
109	0	0	1967
110	0	0	2054
111	0	0	2076
112	0	0	2053
113	0	0	2027
114	0	0	2105
115	0	0	2063
116	0	0	2037
117	0	0	2078
118	0	0	2045
119	0	0	2049
120	0	0	2074
121	0	0	2115
122	0	0	2127
123	0	0	2115
124	0	0	2167
125	0	0	2186
126	0	0	2094
127	0	0	1988
0	0	0	1967
1	0	0	1947
2	0	0	1975
3	0	0	2002
4	0	0	2005
5	0	0	2122
6	0	0	2123
7	0	0	2042
8	0	0	2081
9	0	0	2224
10	0	0	2230
11	0	0	2159
12	0	0	2094
13	0	0	2023
14	0	0	1926
15	0	0	1783
16	0	0	1860
17	0	0	2113
18	0	0	2151
19	0	0	2153
20	0	0	2159
21	0	0	2129
22	0	0	2042
23	0	0	2079
24	0	0	2098
25	0	0	2103
26	0	0	2088
27	0	0	2069
28	0	0	2093
29	0	0	2062
30	0	0	2005
31	0	0	2002
32	0	0	2067
33	0	0	1999
34	0	0	2020
35	0	0	2050
36	0	0	2002
37	0	0	2043
38	0	0	2121
39	0	0	2216
40	0	0	2167
41	0	0	2064
42	0	0	2026
43	0	0	1979
44	0	0	1985
45	0	0	2087
46	0	0	2071
47	0	0	2076
48	0	0	2097
49	0	0	2051
50	0	0	2020
51	0	0	2061
52	0	0	2085
53	0	0	2132
54	0	0	2122
55	0	0	2079
56	0	0	2019
57	0	0	2002
58	0	0	2018
59	0	0	2032
60	0	0	2080
61	0	0	2040
62	0	0	2066
63	0	0	2114
64	0	0	2073
65	0	0	2095
66	0	0	2090
67	0	0	2076
68	0	0	2036
69	0	0	2045
70	0	0	2024
71	0	0	2053
72	0	0	2078
73	0	0	2090
74	0	0	2147
75	0	0	2145
76	0	0	2056
77	0	0	2001
78	0	0	1997
79	0	0	1951
80	0	0	2032
81	0	0	2040
82	0	0	2132
83	0	0	2111
84	0	0	2105
85	0	0	2114
86	0	0	2156
87	0	0	2168
88	0	0	2090
89	0	0	2017
90	0	0	2013
91	0	0	1953
92	0	0	1853
93	0	0	1956
94	0	0	2181
95	0	0	2240
96	0	0	2190
97	0	0	2150
98	0	0	2057
99	0	0	2012
100	0	0	1908
101	0	0	1896
102	0	0	2068
103	0	0	2051
104	0	0	2083
105	0	0	2186
106	0	0	2165
107	0	0	2131
108	0	0	2104
109	0	0	2047
110	0	0	2034
111	0	0	1982
112	0	0	2033
113	0	0	2046
114	0	0	2014
115	0	0	1987
116	0	0	2073
117	0	0	2101
118	0	0	2110
119	0	0	2163
120	0	0	2110
121	0	0	2083
122	0	0	2023
123	0	0	1989
124	0	0	1928
125	0	0	1956
126	0	0	2129
127	0	0	2153
0	0	0	2137
1	0	0	2092
2	0	0	2081
3	0	0	2081
4	0	0	2079
5	0	0	2093
6	0	0	2022
7	0	0	2018
8	0	0	2062
9	0	0	2109
10	0	0	2097
11	0	0	2055
12	0	0	2020
13	0	0	2027
14	0	0	2066
15	0	0	2068
16	0	0	2056
17	0	0	2115
18	0	0	2089
19	0	0	1996
20	0	0	1935
21	0	0	1973
22	0	0	2122
23	0	0	2122
24	0	0	2077
25	0	0	2104
26	0	0	2088
27	0	0	2088
28	0	0	2140
29	0	0	2140
30	0	0	2126
31	0	0	2039
32	0	0	1938
33	0	0	1964
34	0	0	2011
35	0	0	2087
36	0	0	2076
37	0	0	2178
38	0	0	2138
39	0	0	2060
40	0	0	2049
41	0	0	2051
42	0	0	2035
43	0	0	2036
44	0	0	2114
45	0	0	2130
46	0	0	2049
47	0	0	2010
48	0	0	1995
49	0	0	2018
50	0	0	2026
51	0	0	2089
52	0	0	2161
53	0	0	2134
54	0	0	2110
55	0	0	2092
56	0	0	2061
57	0	0	2001
58	0	0	1998
59	0	0	2115
60	0	0	2111
61	0	0	2101
62	0	0	2036
63	0	0	2017
64	0	0	1951
65	0	0	1952
66	0	0	1972
67	0	0	2067
68	0	0	2160
69	0	0	2150
70	0	0	2121
71	0	0	2131
72	0	0	2103
73	0	0	2098
74	0	0	2084
75	0	0	2042
76	0	0	2035
77	0	0	1980
78	0	0	2052
79	0	0	2140
80	0	0	2121
81	0	0	2038
82	0	0	2044
83	0	0	2066
84	0	0	2005
85	0	0	1999
86	0	0	2082
87	0	0	2117
88	0	0	2087
89	0	0	2052
90	0	0	2050
91	0	0	2076
92	0	0	2098
93	0	0	2073
94	0	0	2147
95	0	0	2116
96	0	0	2112
97	0	0	2093
98	0	0	2050
99	0	0	2030
100	0	0	1952
101	0	0	1867
102	0	0	2045
103	0	0	2073
104	0	0	2016
105	0	0	2071
106	0	0	2143
107	0	0	2123
108	0	0	2061
109	0	0	2107
110	0	0	2139
111	0	0	2140
112	0	0	2141
113	0	0	2064
114	0	0	2017
115	0	0	1956
116	0	0	1883
117	0	0	1967
118	0	0	2071
119	0	0	2099
120	0	0	2108
121	0	0	2133
122	0	0	2121
123	0	0	2088
124	0	0	2083
125	0	0	2065
126	0	0	2026
127	0	0	2024
0	0	0	2117
1	0	0	2078
2	0	0	2096
3	0	0	2133
4	0	0	2108
5	0	0	2044
6	0	0	2085
7	0	0	2066
8	0	0	2059
9	0	0	1996
10	0	0	1905
11	0	0	1909
12	0	0	2069
13	0	0	2121
14	0	0	2141
15	0	0	2130
16	0	0	2040
17	0	0	1995
18	0	0	2054
19	0	0	2029
20	0	0	2103
21	0	0	2133
22	0	0	2094
23	0	0	2091
24	0	0	2112
25	0	0	2068
26	0	0	2081
27	0	0	2112
28	0	0	2092
29	0	0	2053
30	0	0	2077
31	0	0	2057
32	0	0	2033
33	0	0	2001
34	0	0	1988
35	0	0	2016
36	0	0	2017
37	0	0	1989
38	0	0	2075
39	0	0	2130
40	0	0	2130
41	0	0	2099
42	0	0	2077
43	0	0	2109
44	0	0	2098
45	0	0	2036
46	0	0	2031
47	0	0	2081
48	0	0	2059
49	0	0	2079
50	0	0	2051
51	0	0	2094
52	0	0	2070
53	0	0	2053
54	0	0	2048
55	0	0	2070
56	0	0	2044
57	0	0	2048
58	0	0	2055
59	0	0	2028
60	0	0	2073
61	0	0	2067
62	0	0	2118
63	0	0	2150
64	0	0	2059
65	0	0	2027
66	0	0	2017
67	0	0	2063
68	0	0	2072
69	0	0	2031
70	0	0	2038
71	0	0	2063
72	0	0	2109
73	0	0	2075
74	0	0	2078
75	0	0	2095
76	0	0	2108
77	0	0	2103
78	0	0	2115
79	0	0	2072
80	0	0	1997
81	0	0	2015
82	0	0	2002
83	0	0	2090
84	0	0	2098
85	0	0	2138
86	0	0	2077
87	0	0	2000
88	0	0	1979
89	0	0	2063
90	0	0	2081
91	0	0	2084
92	0	0	2062
93	0	0	2053
94	0	0	2026
95	0	0	2045
96	0	0	2009
97	0	0	2105
98	0	0	2120
99	0	0	2066
100	0	0	2079
101	0	0	2081
102	0	0	2076
103	0	0	2084
104	0	0	2091
105	0	0	2101
106	0	0	2096
107	0	0	2102
108	0	0	2052
109	0	0	2012
110	0	0	2008
111	0	0	1997
112	0	0	2022
113	0	0	2095
114	0	0	2089
115	0	0	2086
116	0	0	2078
117	0	0	2078
118	0	0	2075
119	0	0	2087
120	0	0	2072
121	0	0	2048
122	0	0	2019
123	0	0	2048
124	0	0	2037
125	0	0	2081
126	0	0	2094
127	0	0	2085
0	0	0	2089
1	0	0	2115
2	0	0	2095
3	0	0	2098
4	0	0	2075
5	0	0	2052
6	0	0	1994
7	0	0	1953
8	0	0	1989
9	0	0	2051
10	0	0	2078
11	0	0	2138
12	0	0	2116
13	0	0	2125
14	0	0	2132
15	0	0	2088
16	0	0	2015
17	0	0	1990
18	0	0	2004
19	0	0	1997
20	0	0	2040
21	0	0	2068
22	0	0	2146
23	0	0	2120
24	0	0	2082
25	0	0	2054
26	0	0	2055
27	0	0	2067
28	0	0	2075
29	0	0	2082
30	0	0	2089
31	0	0	2067
32	0	0	2068
33	0	0	2059
34	0	0	2057
35	0	0	2063
36	0	0	2068
37	0	0	2076
38	0	0	2066
39	0	0	2050
40	0	0	2054
41	0	0	2062
42	0	0	2057
43	0	0	2039
44	0	0	2074
45	0	0	2077
46	0	0	2094
47	0	0	2092
48	0	0	2058
49	0	0	2040
50	0	0	2036
51	0	0	2051
52	0	0	2041
53	0	0	2063
54	0	0	2075
55	0	0	2048
56	0	0	2074
57	0	0	2074
58	0	0	2064
59	0	0	2078
60	0	0	2070
61	0	0	2079
62	0	0	2062
63	0	0	2062
64	0	0	2061
65	0	0	2062
66	0	0	2069
67	0	0	2077
68	0	0	2072
69	0	0	2073
70	0	0	2067
71	0	0	2068
72	0	0	2056
73	0	0	2064
74	0	0	2066
75	0	0	2059
76	0	0	2040
77	0	0	2042
78	0	0	2065
79	0	0	2075
80	0	0	2090
81	0	0	2077
82	0	0	2066
83	0	0	2072
84	0	0	2060
85	0	0	2031
86	0	0	2050
87	0	0	2044
88	0	0	2082
89	0	0	2073
90	0	0	2095
91	0	0	2091
92	0	0	2091
93	0	0	2092
94	0	0	2107
95	0	0	2072
96	0	0	2008
97	0	0	1936
98	0	0	1974
99	0	0	2087
100	0	0	2092
101	0	0	2082
102	0	0	2101
103	0	0	2097
104	0	0	2085
105	0	0	2076
106	0	0	2073
107	0	0	2063
108	0	0	2077
109	0	0	2066
110	0	0	2064
111	0	0	2058
112	0	0	2070
113	0	0	2070
114	0	0	2065
115	0	0	2071
116	0	0	2075
117	0	0	2076
118	0	0	2068
119	0	0	2063
120	0	0	2059
121	0	0	2073
122	0	0	2068
123	0	0	2067
124	0	0	2068
125	0	0	2075
126	0	0	2071
127	0	0	2062
0	0	0	2042
1	0	0	2055
2	0	0	2068
3	0	0	2070
4	0	0	2072
5	0	0	2076
6	0	0	2069
7	0	0	2069
8	0	0	2067
9	0	0	2068
10	0	0	2068
11	0	0	2066
12	0	0	2066
13	0	0	2064
14	0	0	2067
15	0	0	2060
16	0	0	2061
17	0	0	2069
18	0	0	2071
19	0	0	2075
20	0	0	2073
21	0	0	2072
22	0	0	2073
23	0	0	2071
24	0	0	2071
25	0	0	2068
26	0	0	2060
27	0	0	2050
28	0	0	2039
29	0	0	2052
30	0	0	2074
31	0	0	2079
32	0	0	2074
33	0	0	2071
34	0	0	2066
35	0	0	2060
36	0	0	2066
37	0	0	2068
38	0	0	2062
39	0	0	2053
40	0	0	2061
41	0	0	2066
42	0	0	2072
43	0	0	2072
44	0	0	2071
45	0	0	2064
46	0	0	2065
47	0	0	2069
48	0	0	2067
49	0	0	2067
50	0	0	2067
51	0	0	2065
52	0	0	2074
53	0	0	2067
54	0	0	2071
55	0	0	2076
56	0	0	2051
57	0	0	2051
58	0	0	2056
59	0	0	2084
60	0	0	2077
61	0	0	2057
62	0	0	2075
63	0	0	2081
64	0	0	2046
65	0	0	2043
66	0	0	2062
67	0	0	2077
68	0	0	2065
69	0	0	2089
70	0	0	2067
71	0	0	2068
72	0	0	2067
73	0	0	2066
74	0	0	2055
75	0	0	2066
76	0	0	2071
77	0	0	2068
78	0	0	2079
79	0	0	2077
80	0	0	2077
81	0	0	2076
82	0	0	2063
83	0	0	2064
84	0	0	2062
85	0	0	2059
86	0	0	2063
87	0	0	2074
88	0	0	2068
89	0	0	2061
90	0	0	2066
91	0	0	2071
92	0	0	2070
93	0	0	2063
94	0	0	2066
95	0	0	2069
96	0	0	2069
97	0	0	2068
98	0	0	2070
99	0	0	2071
100	0	0	2067
101	0	0	2069
102	0	0	2064
103	0	0	2058
104	0	0	2056
105	0	0	2061
106	0	0	2068
107	0	0	2072
108	0	0	2064
109	0	0	2071
110	0	0	2067
111	0	0	2062
112	0	0	2063
113	0	0	2062
114	0	0	2071
115	0	0	2070
116	0	0	2063
117	0	0	2059
118	0	0	2062
119	0	0	2067
120	0	0	2070
121	0	0	2073
122	0	0	2070
123	0	0	2062
124	0	0	2065
125	0	0	2067
126	0	0	2063
127	0	0	2066
0	0	0	2063
1	0	0	2065
2	0	0	2062
3	0	0	2064
4	0	0	2063
5	0	0	2061
6	0	0	2064
7	0	0	2063
8	0	0	2067
9	0	0	2064
10	0	0	2066
11	0	0	2061
12	0	0	2060
13	0	0	2060
14	0	0	2058
15	0	0	2058
16	0	0	2064
17	0	0	2066
18	0	0	2073
19	0	0	2066
20	0	0	2062
21	0	0	2067
22	0	0	2071
23	0	0	2064
24	0	0	2060
25	0	0	2057
26	0	0	2061
27	0	0	2063
28	0	0	2067
29	0	0	2068
30	0	0	2062
31	0	0	2063
32	0	0	2061
33	0	0	2062
34	0	0	2066
35	0	0	2065
36	0	0	2058
37	0	0	2060
38	0	0	2064
39	0	0	2072
40	0	0	2067
41	0	0	2067
42	0	0	2062
43	0	0	2057
44	0	0	2061
45	0	0	2060
46	0	0	2067
47	0	0	2069
48	0	0	2071
49	0	0	2067
50	0	0	2063
51	0	0	2068
52	0	0	2078
53	0	0	2075
54	0	0	2062
55	0	0	2059
56	0	0	2060
57	0	0	2059
58	0	0	2063
59	0	0	2080
60	0	0	2078
61	0	0	2067
62	0	0	2058
63	0	0	2058
64	0	0	2063
65	0	0	2067
66	0	0	2071
67	0	0	2072
68	0	0	2074
69	0	0	2073
70	0	0	2073
71	0	0	2070
72	0	0	2070
73	0	0	2067
74	0	0	2070
75	0	0	2064
76	0	0	2064
77	0	0	2070
78	0	0	2063
79	0	0	2067
80	0	0	2071
81	0	0	2062
82	0	0	2045
83	0	0	2057
84	0	0	2071
85	0	0	2074
86	0	0	2078
87	0	0	2079
88	0	0	2072
89	0	0	2053
90	0	0	2071
91	0	0	2060
92	0	0	2070
93	0	0	2068
94	0	0	2067
95	0	0	2066
96	0	0	2067
97	0	0	2066
98	0	0	2066
99	0	0	2061
100	0	0	2060
101	0	0	2063
102	0	0	2070
103	0	0	2072
104	0	0	2073
105	0	0	2067
106	0	0	2064
107	0	0	2065
108	0	0	2061
109	0	0	2065
110	0	0	2060
111	0	0	2052
112	0	0	2053
113	0	0	2061
114	0	0	2080
115	0	0	2071
116	0	0	2065
117	0	0	2063
118	0	0	2056
119	0	0	2069
120	0	0	2068
121	0	0	2066
122	0	0	2065
123	0	0	2068
124	0	0	2061
125	0	0	2060
126	0	0	2062
127	0	0	2061
0	0	0	2058
1	0	0	2063
2	0	0	2069
3	0	0	2067
4	0	0	2062
5	0	0	2065
6	0	0	2062
7	0	0	2064
8	0	0	2059
9	0	0	2066
10	0	0	2070
11	0	0	2062
12	0	0	2064
13	0	0	2060
14	0	0	2060
15	0	0	2054
16	0	0	2062
17	0	0	2068
18	0	0	2068
19	0	0	2068
20	0	0	2069
21	0	0	2065
22	0	0	2057
23	0	0	2058
24	0	0	2061
25	0	0	2061
26	0	0	2065
27	0	0	2070
28	0	0	2071
29	0	0	2070
30	0	0	2071
31	0	0	2064
32	0	0	2070
33	0	0	2072
34	0	0	2071
35	0	0	2068
36	0	0	2059
37	0	0	2045
38	0	0	2070
39	0	0	2077
40	0	0	2070
41	0	0	2055
42	0	0	2063
43	0	0	2068
44	0	0	2067
45	0	0	2062
46	0	0	2068
47	0	0	2067
48	0	0	2064
49	0	0	2062
50	0	0	2063
51	0	0	2064
52	0	0	2063
53	0	0	2069
54	0	0	2071
55	0	0	2068
56	0	0	2061
57	0	0	2052
58	0	0	2051
59	0	0	2051
60	0	0	2068
61	0	0	2074
62	0	0	2069
63	0	0	2064
64	0	0	2065
65	0	0	2067
66	0	0	2063
67	0	0	2070
68	0	0	2069
69	0	0	2066
70	0	0	2066
71	0	0	2063
72	0	0	2062
73	0	0	2062
74	0	0	2058
75	0	0	2053
76	0	0	2058
77	0	0	2065
78	0	0	2064
79	0	0	2069
80	0	0	2073
81	0	0	2074
82	0	0	2078
83	0	0	2069
84	0	0	2067
85	0	0	2071
86	0	0	2074
87	0	0	2056
88	0	0	2045
89	0	0	2040
90	0	0	2056
91	0	0	2068
92	0	0	2070
93	0	0	2065
94	0	0	2051
95	0	0	2045
96	0	0	2053
97	0	0	2069
98	0	0	2066
99	0	0	2074
100	0	0	2084
101	0	0	2085
102	0	0	2072
103	0	0	2066
104	0	0	2063
105	0	0	2060
106	0	0	2059
107	0	0	2072
108	0	0	2063
109	0	0	2066
110	0	0	2070
111	0	0	2072
112	0	0	2074
113	0	0	2072
114	0	0	2071
115	0	0	2075
116	0	0	2067
117	0	0	2064
118	0	0	2064
119	0	0	2055
120	0	0	2048
121	0	0	2066
122	0	0	2069
123	0	0	2059
124	0	0	2059
125	0	0	2058
126	0	0	2068
127	0	0	2066
0	0	0	2064
1	0	0	2067
2	0	0	2066
3	0	0	2074
4	0	0	2072
5	0	0	2067
6	0	0	2071
7	0	0	2067
8	0	0	2065
9	0	0	2061
10	0	0	2064
11	0	0	2058
12	0	0	2060
13	0	0	2066
14	0	0	2068
15	0	0	2062
16	0	0	2066
17	0	0	2063
18	0	0	2063
19	0	0	2065
20	0	0	2061
21	0	0	2063
22	0	0	2065
23	0	0	2065
24	0	0	2065
25	0	0	2072
26	0	0	2067
27	0	0	2073
28	0	0	2066
29	0	0	2060
30	0	0	2062
31	0	0	2066
32	0	0	2067
33	0	0	2073
34	0	0	2069
35	0	0	2064
36	0	0	2060
37	0	0	2056
38	0	0	2049
39	0	0	2054
40	0	0	2076
41	0	0	2072
42	0	0	2066
43	0	0	2067
44	0	0	2058
45	0	0	2069
46	0	0	2067
47	0	0	2070
48	0	0	2071
49	0	0	2069
50	0	0	2073
51	0	0	2075
52	0	0	2063
53	0	0	2064
54	0	0	2069
55	0	0	2069
56	0	0	2062
57	0	0	2068
58	0	0	2060
59	0	0	2048
60	0	0	2064
61	0	0	2065
62	0	0	2063
63	0	0	2076
64	0	0	2078
65	0	0	2080
66	0	0	2068
67	0	0	2061
68	0	0	2055
69	0	0	2041
70	0	0	2053
71	0	0	2064
72	0	0	2066
73	0	0	2072
74	0	0	2067
75	0	0	2077
76	0	0	2083
77	0	0	2078
78	0	0	2074
79	0	0	2074
80	0	0	2070
81	0	0	2071
82	0	0	2073
83	0	0	2067
84	0	0	2066
85	0	0	2061
86	0	0	2060
87	0	0	2060
88	0	0	2058
89	0	0	2054
90	0	0	2068
91	0	0	2066
92	0	0	2063
93	0	0	2064
94	0	0	2053
95	0	0	2071
96	0	0	2076
97	0	0	2072
98	0	0	2067
99	0	0	2067
100	0	0	2067
101	0	0	2062
102	0	0	2065
103	0	0	2061
104	0	0	2070
105	0	0	2071
106	0	0	2069
107	0	0	2066
108	0	0	2061
109	0	0	2063
110	0	0	2063
111	0	0	2068
112	0	0	2069
113	0	0	2065
114	0	0	2069
115	0	0	2066
116	0	0	2069
117	0	0	2062
118	0	0	2065
119	0	0	2069
120	0	0	2065
121	0	0	2071
122	0	0	2074
123	0	0	2062
124	0	0	2063
125	0	0	2060
126	0	0	2053
127	0	0	2049
0	0	0	2051
1	0	0	2074
2	0	0	2079
3	0	0	2074
4	0	0	2074
5	0	0	2066
6	0	0	2066
7	0	0	2068
8	0	0	2070
9	0	0	2067
10	0	0	2062
11	0	0	2059
12	0	0	2058
13	0	0	2057
14	0	0	2059
15	0	0	2060
16	0	0	2070
17	0	0	2072
18	0	0	2071
19	0	0	2069
20	0	0	2067
21	0	0	2069
22	0	0	2069
23	0	0	2076
24	0	0	2071
25	0	0	2068
26	0	0	2058
27	0	0	2063
28	0	0	2067
29	0	0	2064
30	0	0	2066
31	0	0	2052
32	0	0	2052
33	0	0	2055
34	0	0	2068
35	0	0	2063
36	0	0	2072
37	0	0	2074
38	0	0	2073
39	0	0	2066
40	0	0	2071
41	0	0	2073
42	0	0	2064
43	0	0	2055
44	0	0	2054
45	0	0	2050
46	0	0	2063
47	0	0	2074
48	0	0	2069
49	0	0	2069
50	0	0	2071
51	0	0	2070
52	0	0	2073
53	0	0	2070
54	0	0	2069
55	0	0	2063
56	0	0	2069
57	0	0	2066
58	0	0	2055
59	0	0	2055
60	0	0	2060
61	0	0	2063
62	0	0	2062
63	0	0	2067
64	0	0	2064
65	0	0	2055
66	0	0	2068
67	0	0	2071
68	0	0	2073
69	0	0	2068
70	0	0	2072
71	0	0	2073
72	0	0	2069
73	0	0	2067
74	0	0	2071
75	0	0	2066
76	0	0	2063
77	0	0	2067
78	0	0	2062
79	0	0	2065
80	0	0	2068
81	0	0	2065
82	0	0	2064
83	0	0	2062
84	0	0	2065
85	0	0	2080
86	0	0	2076
87	0	0	2077
88	0	0	2069
89	0	0	2062
90	0	0	2056
91	0	0	2050
92	0	0	2045
93	0	0	2041
94	0	0	2057
95	0	0	2082
96	0	0	2073
97	0	0	2068
98	0	0	2065
99	0	0	2062
100	0	0	2063
101	0	0	2066
102	0	0	2076
103	0	0	2060
104	0	0	2070
105	0	0	2076
106	0	0	2073
107	0	0	2071
108	0	0	2068
109	0	0	2064
110	0	0	2068
111	0	0	2063
112	0	0	2067
113	0	0	2062
114	0	0	2075
115	0	0	2078
116	0	0	2073
117	0	0	2070
118	0	0	2060
119	0	0	2050
120	0	0	2044
121	0	0	2057
122	0	0	2045
123	0	0	2049
124	0	0	2056
125	0	0	2081
126	0	0	2079
127	0	0	2077
0	0	0	2078
1	0	0	2073
2	0	0	2072
3	0	0	2069
4	0	0	2071
5	0	0	2067
6	0	0	2065
7	0	0	2067
8	0	0	2066
9	0	0	2065
10	0	0	2066
11	0	0	2070
12	0	0	2065
13	0	0	2065
14	0	0	2057
15	0	0	2064
16	0	0	2064
17	0	0	2060
18	0	0	2066
19	0	0	2064
20	0	0	2061
21	0	0	2060
22	0	0	2069
23	0	0	2078
24	0	0	2073
25	0	0	2067
26	0	0	2060
27	0	0	2068
28	0	0	2065
29	0	0	2065
30	0	0	2068
31	0	0	2065
32	0	0	2064
33	0	0	2069
34	0	0	2066
35	0	0	2065
36	0	0	2065
37	0	0	2064
38	0	0	2076
39	0	0	2076
40	0	0	2073
41	0	0	2072
42	0	0	2065
43	0	0	2058
44	0	0	2049
45	0	0	2049
46	0	0	2051
47	0	0	2059
48	0	0	2073
49	0	0	2070
50	0	0	2067
51	0	0	2067
52	0	0	2073
53	0	0	2071
54	0	0	2062
55	0	0	2063
56	0	0	2057
57	0	0	2059
58	0	0	2060
59	0	0	2066
60	0	0	2077
61	0	0	2072
62	0	0	2063
63	0	0	2072
64	0	0	2066
65	0	0	2067
66	0	0	2063
67	0	0	2068
68	0	0	2067
69	0	0	2068
70	0	0	2068
71	0	0	2068
72	0	0	2061
73	0	0	2057
74	0	0	2056
75	0	0	2064
76	0	0	2066
77	0	0	2070
78	0	0	2075
79	0	0	2067
80	0	0	2068
81	0	0	2065
82	0	0	2060
83	0	0	2058
84	0	0	2055
85	0	0	2064
86	0	0	2063
87	0	0	2064
88	0	0	2066
89	0	0	2061
90	0	0	2069
91	0	0	2062
92	0	0	2056
93	0	0	2075
94	0	0	2067
95	0	0	2070
96	0	0	2064
97	0	0	2056
98	0	0	2058
99	0	0	2061
100	0	0	2065
101	0	0	2071
102	0	0	2075
103	0	0	2071
104	0	0	2071
105	0	0	2074
106	0	0	2063
107	0	0	2059
108	0	0	2055
109	0	0	2059
110	0	0	2058
111	0	0	2066
112	0	0	2062
113	0	0	2065
114	0	0	2069
115	0	0	2066
116	0	0	2065
117	0	0	2079
118	0	0	2076
119	0	0	2084
120	0	0	2077
121	0	0	2068
122	0	0	2059
123	0	0	2057
124	0	0	2045
125	0	0	2035
126	0	0	2035
127	0	0	2053
0	0	0	2061
1	0	0	2080
2	0	0	2087
3	0	0	2081
4	0	0	2079
5	0	0	2065
6	0	0	2059
7	0	0	2063
8	0	0	2062
9	0	0	2065
10	0	0	2076
11	0	0	2075
12	0	0	2071
13	0	0	2070
14	0	0	2065
15	0	0	2060
16	0	0	2061
17	0	0	2061
18	0	0	2063
19	0	0	2064
20	0	0	2065
21	0	0	2062
22	0	0	2065
23	0	0	2071
24	0	0	2069
25	0	0	2063
26	0	0	2063
27	0	0	2067
28	0	0	2068
29	0	0	2068
30	0	0	2071
31	0	0	2068
32	0	0	2066
33	0	0	2062
34	0	0	2062
35	0	0	2060
36	0	0	2065
37	0	0	2069
38	0	0	2068
39	0	0	2072
40	0	0	2073
41	0	0	2062
42	0	0	2057
43	0	0	2058
44	0	0	2071
45	0	0	2079
46	0	0	2072
47	0	0	2075
48	0	0	2058
49	0	0	2056
50	0	0	2060
51	0	0	2061
52	0	0	2067
53	0	0	2053
54	0	0	2044
55	0	0	2057
56	0	0	2050
57	0	0	2060
58	0	0	2078
59	0	0	2087
60	0	0	2074
61	0	0	2076
62	0	0	2075
63	0	0	2071
64	0	0	2073
65	0	0	2078
66	0	0	2073
67	0	0	2061
68	0	0	2067
69	0	0	2070
70	0	0	2071
71	0	0	2076
72	0	0	2068
73	0	0	2066
74	0	0	2063
75	0	0	2059
76	0	0	2060
77	0	0	2051
78	0	0	2045
79	0	0	2062
80	0	0	2057
81	0	0	2066
82	0	0	2085
83	0	0	2084
84	0	0	2082
85	0	0	2065
86	0	0	2055
87	0	0	2058
88	0	0	2061
89	0	0	2048
90	0	0	2038
91	0	0	2068
92	0	0	2092
93	0	0	2087
94	0	0	2068
95	0	0	2062
96	0	0	2065
97	0	0	2065
98	0	0	2063
99	0	0	2070
100	0	0	2064
101	0	0	2055
102	0	0	2077
103	0	0	2085
104	0	0	2077
105	0	0	2075
106	0	0	2065
107	0	0	2071
108	0	0	2070
109	0	0	2057
110	0	0	2053
111	0	0	2051
112	0	0	2048
113	0	0	2037
114	0	0	2040
115	0	0	2053
116	0	0	2090
117	0	0	2096
118	0	0	2084
119	0	0	2081
120	0	0	2075
121	0	0	2067
122	0	0	2074
123	0	0	2061
124	0	0	2050
125	0	0	2059
126	0	0	2063
127	0	0	2072
0	0	0	2073
1	0	0	2067
2	0	0	2063
3	0	0	2070
4	0	0	2076
5	0	0	2071
6	0	0	2067
7	0	0	2068
8	0	0	2063
9	0	0	2063
10	0	0	2067
11	0	0	2075
12	0	0	2081
13	0	0	2077
14	0	0	2071
15	0	0	2071
16	0	0	2071
17	0	0	2066
18	0	0	2050
19	0	0	2029
20	0	0	2046
21	0	0	2063
22	0	0	2056
23	0	0	2035
24	0	0	2060
25	0	0	2073
26	0	0	2073
27	0	0	2059
28	0	0	2086
29	0	0	2084
30	0	0	2071
31	0	0	2052
32	0	0	2060
33	0	0	2061
34	0	0	2075
35	0	0	2077
36	0	0	2063
37	0	0	2067
38	0	0	2073
39	0	0	2082
40	0	0	2067
41	0	0	2076
42	0	0	2066
43	0	0	2047
44	0	0	2042
45	0	0	2056
46	0	0	2084
47	0	0	2081
48	0	0	2071
49	0	0	2068
50	0	0	2061
51	0	0	2056
52	0	0	2055
53	0	0	2067
54	0	0	2072
55	0	0	2083
56	0	0	2083
57	0	0	2079
58	0	0	2063
59	0	0	2077
60	0	0	2087
61	0	0	2075
62	0	0	2046
63	0	0	2054
64	0	0	2033
65	0	0	2011
66	0	0	2027
67	0	0	2059
68	0	0	2094
69	0	0	2100
70	0	0	2090
71	0	0	2087
72	0	0	2088
73	0	0	2084
74	0	0	2086
75	0	0	2063
76	0	0	2027
77	0	0	2025
78	0	0	2050
79	0	0	2055
80	0	0	2063
81	0	0	2111
82	0	0	2094
83	0	0	2061
84	0	0	2031
85	0	0	2030
86	0	0	2039
87	0	0	2049
88	0	0	2076
89	0	0	2068
90	0	0	2068
91	0	0	2086
92	0	0	2086
93	0	0	2068
94	0	0	2056
95	0	0	2091
96	0	0	2092
97	0	0	2089
98	0	0	2083
99	0	0	2082
100	0	0	2112
101	0	0	2072
102	0	0	2056
103	0	0	2048
104	0	0	2044
105	0	0	2054
106	0	0	2085
107	0	0	2046
108	0	0	2029
109	0	0	2023
110	0	0	2044
111	0	0	2008
112	0	0	1997
113	0	0	2082
114	0	0	2132
115	0	0	2148
116	0	0	2115
117	0	0	2103
118	0	0	2059
119	0	0	2032
120	0	0	2051
121	0	0	2038
122	0	0	2036
123	0	0	2050
124	0	0	2084
125	0	0	2087
126	0	0	2096
127	0	0	2073
0	0	0	2063
1	0	0	2077
2	0	0	2081
3	0	0	2101
4	0	0	2108
5	0	0	2079
6	0	0	2074
7	0	0	2027
8	0	0	2034
9	0	0	2051
10	0	0	2069
11	0	0	2042
12	0	0	2052
13	0	0	2032
14	0	0	2027
15	0	0	2077
16	0	0	2044
17	0	0	2071
18	0	0	2090
19	0	0	2053
20	0	0	2091
21	0	0	2125
22	0	0	2116
23	0	0	2083
24	0	0	2068
25	0	0	2032
26	0	0	2027
27	0	0	2031
28	0	0	2038
29	0	0	2035
30	0	0	2031
31	0	0	2064
32	0	0	2105
33	0	0	2090
34	0	0	2082
35	0	0	2083
36	0	0	2084
37	0	0	2070
38	0	0	2063
39	0	0	2097
40	0	0	2090
41	0	0	2069
42	0	0	2046
43	0	0	2023
44	0	0	2052
45	0	0	2079
46	0	0	2079
47	0	0	2074
48	0	0	2061
49	0	0	2042
50	0	0	2043
51	0	0	2013
52	0	0	2019
53	0	0	2072
54	0	0	2111
55	0	0	2109
56	0	0	2075
57	0	0	2052
58	0	0	2044
59	0	0	2092
60	0	0	2100
61	0	0	2066
62	0	0	2074
63	0	0	2087
64	0	0	2065
65	0	0	2027
66	0	0	2040
67	0	0	2031
68	0	0	2056
69	0	0	2039
70	0	0	2082
71	0	0	2100
72	0	0	2097
73	0	0	2111
74	0	0	2089
75	0	0	2069
76	0	0	2033
77	0	0	2021
78	0	0	2011
79	0	0	2026
80	0	0	2104
81	0	0	2093
82	0	0	2099
83	0	0	2085
84	0	0	2081
85	0	0	2064
86	0	0	2032
87	0	0	2046
88	0	0	2085
89	0	0	2073
90	0	0	2038
91	0	0	2025
92	0	0	2056
93	0	0	2073
94	0	0	2067
95	0	0	2097
96	0	0	2070
97	0	0	2078
98	0	0	2077
99	0	0	2041
100	0	0	2045
101	0	0	2063
102	0	0	2056
103	0	0	2067
104	0	0	2051
105	0	0	2034
106	0	0	2051
107	0	0	2114
108	0	0	2091
109	0	0	2104
110	0	0	2082
111	0	0	2087
112	0	0	2085
113	0	0	2077
114	0	0	2051
115	0	0	2054
116	0	0	2043
117	0	0	2014
118	0	0	2074
119	0	0	2069
120	0	0	2073
121	0	0	2098
122	0	0	2106
123	0	0	2061
124	0	0	2024
125	0	0	1977
126	0	0	2008
127	0	0	2025
0	0	0	2091
1	0	0	2069
2	0	0	2050
3	0	0	2088
4	0	0	2128
5	0	0	2143
6	0	0	2090
7	0	0	2074
8	0	0	2013
9	0	0	2073
10	0	0	2064
11	0	0	2007
12	0	0	2021
13	0	0	2063
14	0	0	2077
15	0	0	2097
16	0	0	2134
17	0	0	2119
18	0	0	2098
19	0	0	2083
20	0	0	1987
21	0	0	1967
22	0	0	2067
23	0	0	2086
24	0	0	2099
25	0	0	2076
26	0	0	2030
27	0	0	2016
28	0	0	1997
29	0	0	2043
30	0	0	2115
31	0	0	2103
32	0	0	2150
33	0	0	2140
34	0	0	2104
35	0	0	2013
36	0	0	2006
37	0	0	2023
38	0	0	1981
39	0	0	2005
40	0	0	2077
41	0	0	2129
42	0	0	2084
43	0	0	2098
44	0	0	2059
45	0	0	2128
46	0	0	2106
47	0	0	2038
48	0	0	2065
49	0	0	2049
50	0	0	2025
51	0	0	2002
52	0	0	2064
53	0	0	2121
54	0	0	2044
55	0	0	2023
56	0	0	2035
57	0	0	2074
58	0	0	2085
59	0	0	2066
60	0	0	2046
61	0	0	2148
62	0	0	2203
63	0	0	2100
64	0	0	2091
65	0	0	2045
66	0	0	1985
67	0	0	1888
68	0	0	2044
69	0	0	2093
70	0	0	2048
71	0	0	2005
72	0	0	2077
73	0	0	2129
74	0	0	2127
75	0	0	2135
76	0	0	2151
77	0	0	2127
78	0	0	2074
79	0	0	1958
80	0	0	1912
81	0	0	1965
82	0	0	2051
83	0	0	2062
84	0	0	2100
85	0	0	2196
86	0	0	2075
87	0	0	2046
88	0	0	2078
89	0	0	2160
90	0	0	2196
91	0	0	2098
92	0	0	2031
93	0	0	2058
94	0	0	2114
95	0	0	1949
96	0	0	1779
97	0	0	1963
98	0	0	2055
99	0	0	2060
100	0	0	2103
101	0	0	2087
102	0	0	2134
103	0	0	2204
104	0	0	2177
105	0	0	2087
106	0	0	2036
107	0	0	2099
108	0	0	2032
109	0	0	1940
110	0	0	1972
111	0	0	1949
112	0	0	2073
113	0	0	2071
114	0	0	2117
115	0	0	2163
116	0	0	2147
117	0	0	2122
118	0	0	2060
119	0	0	2005
120	0	0	2097
121	0	0	2134
122	0	0	2133
123	0	0	2089
124	0	0	2118
125	0	0	2056
126	0	0	1968
127	0	0	1902
0	0	0	2006
1	0	0	2092
2	0	0	2120
3	0	0	2065
4	0	0	2074
5	0	0	2089
6	0	0	2121
7	0	0	2072
8	0	0	2134
9	0	0	2120
10	0	0	2090
11	0	0	1986
12	0	0	1914
13	0	0	1887
14	0	0	2137
15	0	0	2167
16	0	0	2097
17	0	0	1962
18	0	0	2036
19	0	0	2118
20	0	0	2102
21	0	0	2080
22	0	0	2023
23	0	0	2136
24	0	0	2110
25	0	0	2117
26	0	0	2078
27	0	0	2035
28	0	0	2028
29	0	0	1985
30	0	0	1966
31	0	0	2038
32	0	0	2132
33	0	0	2184
34	0	0	2128
35	0	0	2117
36	0	0	2068
37	0	0	2064
38	0	0	2051
39	0	0	2026
40	0	0	2024
41	0	0	2018
42	0	0	2036
43	0	0	2089
44	0	0	2055
45	0	0	2072
46	0	0	2039
47	0	0	2050
48	0	0	2049
49	0	0	2034
50	0	0	2112
51	0	0	2136
52	0	0	2153
53	0	0	2122
54	0	0	2070
55	0	0	2099
56	0	0	2014
57	0	0	1903
58	0	0	1852
59	0	0	2020
60	0	0	2130
61	0	0	2146
62	0	0	2135
63	0	0	2132
64	0	0	2128
65	0	0	2099
66	0	0	2033
67	0	0	1970
68	0	0	1954
69	0	0	2083
70	0	0	2138
71	0	0	2101
72	0	0	2081
73	0	0	2053
74	0	0	2022
75	0	0	2025
76	0	0	2057
77	0	0	2037
78	0	0	2066
79	0	0	2131
80	0	0	2133
81	0	0	2127
82	0	0	2102
83	0	0	2061
84	0	0	2044
85	0	0	1930
86	0	0	1977
87	0	0	2006
88	0	0	2063
89	0	0	2088
90	0	0	2102
91	0	0	2076
92	0	0	2090
93	0	0	2098
94	0	0	2090
95	0	0	2113
96	0	0	2137
97	0	0	2132
98	0	0	2100
99	0	0	2082
100	0	0	2017
101	0	0	1969
102	0	0	1907
103	0	0	1877
104	0	0	2069
105	0	0	2111
106	0	0	2184
107	0	0	2132
108	0	0	2123
109	0	0	2068
110	0	0	2058
111	0	0	2049
112	0	0	2056
113	0	0	2071
114	0	0	2054
115	0	0	2060
116	0	0	2074
117	0	0	2091
118	0	0	2163
119	0	0	2130
120	0	0	2093
121	0	0	2002
122	0	0	1966
123	0	0	1954
124	0	0	1944
125	0	0	2006
126	0	0	2038
127	0	0	2143
0	0	0	2150
1	0	0	2096
2	0	0	2087
3	0	0	2110
4	0	0	2130
5	0	0	2130
6	0	0	2108
7	0	0	2063
8	0	0	1967
9	0	0	1912
10	0	0	2019
11	0	0	2008
12	0	0	2034
13	0	0	2160
14	0	0	2158
15	0	0	2110
16	0	0	2084
17	0	0	2085
18	0	0	2073
19	0	0	2046
20	0	0	2071
21	0	0	2123
22	0	0	2095
23	0	0	2023
24	0	0	1932
25	0	0	2009
26	0	0	2032
27	0	0	2083
28	0	0	2148
29	0	0	2153
30	0	0	2148
31	0	0	2110
32	0	0	2075
33	0	0	2007
34	0	0	1887
35	0	0	1883
36	0	0	2065
37	0	0	2114
38	0	0	2140
39	0	0	2140
40	0	0	2114
41	0	0	2070
42	0	0	2054
43	0	0	2064
44	0	0	2051
45	0	0	2072
46	0	0	2071
47	0	0	2072
48	0	0	2059
49	0	0	2105
50	0	0	2139
51	0	0	2122
52	0	0	2094
53	0	0	2000
54	0	0	1948
55	0	0	1947
56	0	0	2018
57	0	0	2002
58	0	0	2096
59	0	0	2142
60	0	0	2138
61	0	0	2099
62	0	0	2006
63	0	0	2087
64	0	0	2132
65	0	0	2146
66	0	0	2093
67	0	0	2051
68	0	0	2023
69	0	0	2010
70	0	0	1986
71	0	0	1986
72	0	0	2017
73	0	0	2066
74	0	0	2157
75	0	0	2150
76	0	0	2136
77	0	0	2084
78	0	0	2030
79	0	0	2055
80	0	0	2041
81	0	0	2004
82	0	0	1967
83	0	0	2078
84	0	0	2143
85	0	0	2143
86	0	0	2189
87	0	0	2154
88	0	0	2036
89	0	0	1952
90	0	0	1873
91	0	0	1924
92	0	0	2032
93	0	0	2099
94	0	0	2098
95	0	0	2143
96	0	0	2115
97	0	0	2091
98	0	0	2055
99	0	0	2088
100	0	0	2079
101	0	0	2066
102	0	0	2084
103	0	0	2083
104	0	0	2068
105	0	0	2110
106	0	0	2101
107	0	0	2103
108	0	0	2081
109	0	0	2072
110	0	0	2026
111	0	0	1981
112	0	0	1941
113	0	0	2003
114	0	0	2155
115	0	0	2127
116	0	0	2079
117	0	0	2092
118	0	0	2082
119	0	0	2061
120	0	0	2063
121	0	0	2050
122	0	0	2084
123	0	0	2069
124	0	0	2074
125	0	0	2053
126	0	0	1999
127	0	0	2046
0	0	0	2043
1	0	0	2107
2	0	0	2102
3	0	0	2128
4	0	0	2073
5	0	0	2034
6	0	0	2039
7	0	0	2021
8	0	0	2034
9	0	0	2049
10	0	0	2069
11	0	0	2104
12	0	0	2133
13	0	0	2108
14	0	0	2070
15	0	0	2070
16	0	0	2042
17	0	0	1961
18	0	0	2004
19	0	0	2009
20	0	0	2055
21	0	0	2073
22	0	0	2126
23	0	0	2074
24	0	0	2063
25	0	0	2062
26	0	0	2120
27	0	0	2116
28	0	0	2037
29	0	0	2039
30	0	0	2036
31	0	0	2007
32	0	0	2028
33	0	0	2083
34	0	0	2116
35	0	0	2145
36	0	0	2118
37	0	0	2098
38	0	0	2071
39	0	0	2033
40	0	0	2002
41	0	0	1985
42	0	0	2088
43	0	0	2098
44	0	0	2072
45	0	0	2071
46	0	0	2080
47	0	0	2061
48	0	0	2051
49	0	0	2025
50	0	0	2094
51	0	0	2122
52	0	0	2082
53	0	0	2054
54	0	0	2028
55	0	0	2030
56	0	0	2080
57	0	0	2076
58	0	0	2072
59	0	0	2071
60	0	0	2063
61	0	0	2084
62	0	0	2131
63	0	0	2124
64	0	0	2072
65	0	0	2033
66	0	0	1988
67	0	0	1936
68	0	0	1985
69	0	0	1997
70	0	0	2075
71	0	0	2148
72	0	0	2147
73	0	0	2106
74	0	0	2111
75	0	0	2088
76	0	0	2086
77	0	0	2044
78	0	0	2048
79	0	0	2053
80	0	0	2077
81	0	0	2065
82	0	0	2051
83	0	0	2062
84	0	0	2055
85	0	0	2072
86	0	0	2020
87	0	0	2032
88	0	0	2090
89	0	0	2099
90	0	0	2075
91	0	0	2057
92	0	0	2054
93	0	0	2085
94	0	0	2046
95	0	0	2060
96	0	0	2083
97	0	0	2099
98	0	0	2077
99	0	0	2084
100	0	0	2087
101	0	0	2057
102	0	0	2053
103	0	0	2022
104	0	0	2067
105	0	0	2060
106	0	0	2022
107	0	0	2059
108	0	0	2092
109	0	0	2095
110	0	0	2072
111	0	0	2057
112	0	0	2095
113	0	0	2087
114	0	0	2057
115	0	0	2041
116	0	0	2050
117	0	0	2033
118	0	0	2070
119	0	0	2083
120	0	0	2090
121	0	0	2073
122	0	0	2072
123	0	0	2093
124	0	0	2056
125	0	0	2048
126	0	0	2032
127	0	0	2026
0	0	0	2049
1	0	0	2069
2	0	0	2103
3	0	0	2079
4	0	0	2082
5	0	0	2076
6	0	0	2066
7	0	0	2064
8	0	0	2066
9	0	0	2066
10	0	0	2064
11	0	0	2070
12	0	0	2060
13	0	0	2078
14	0	0	2072
15	0	0	2072
16	0	0	2058
17	0	0	2060
18	0	0	2080
19	0	0	2073
20	0	0	2059
21	0	0	2028
22	0	0	2065
23	0	0	2037
24	0	0	2065
25	0	0	2075
26	0	0	2075
27	0	0	2040
28	0	0	2062
29	0	0	2099
30	0	0	2079
31	0	0	2027
32	0	0	2043
33	0	0	2078
34	0	0	2076
35	0	0	2086
36	0	0	2074
37	0	0	2070
38	0	0	2068
39	0	0	2066
40	0	0	2076
41	0	0	2072
42	0	0	2056
43	0	0	2030
44	0	0	2040
45	0	0	2081
46	0	0	2073
47	0	0	2078
48	0	0	2078
49	0	0	2069
50	0	0	2072
51	0	0	2070
52	0	0	2065
53	0	0	2062
54	0	0	2074
55	0	0	2069
56	0	0	2060
57	0	0	2042
58	0	0	2051
59	0	0	2073
60	0	0	2075
61	0	0	2072
62	0	0	2072
63	0	0	2074
64	0	0	2071
65	0	0	2070
66	0	0	2060
67	0	0	2067
68	0	0	2070
69	0	0	2073
70	0	0	2066
71	0	0	2066
72	0	0	2067
73	0	0	2063
74	0	0	2066
75	0	0	2063
76	0	0	2057
77	0	0	2036
78	0	0	2051
79	0	0	2084
80	0	0	2072
81	0	0	2077
82	0	0	2070
83	0	0	2067
84	0	0	2067
85	0	0	2072
86	0	0	2073
87	0	0	2062
88	0	0	2066
89	0	0	2079
90	0	0	2075
91	0	0	2089
92	0	0	2074
93	0	0	2037
94	0	0	2057
95	0	0	2043
96	0	0	2035
97	0	0	2042
98	0	0	2085
99	0	0	2090
100	0	0	2051
101	0	0	2069
102	0	0	2072
103	0	0	2063
104	0	0	2075
105	0	0	2075
106	0	0	2076
107	0	0	2050
108	0	0	2075
109	0	0	2077
110	0	0	2062
111	0	0	2076
112	0	0	2065
113	0	0	2046
114	0	0	2072
115	0	0	2080
116	0	0	2073
117	0	0	2072
118	0	0	2071
119	0	0	2063
120	0	0	2050
121	0	0	2059
122	0	0	2065
123	0	0	2060
124	0	0	2066
125	0	0	2070
126	0	0	2073
127	0	0	2072
0	0	0	2065
1	0	0	2050
2	0	0	2070
3	0	0	2069
4	0	0	2072
5	0	0	2073
6	0	0	2074
7	0	0	2073
8	0	0	2051
9	0	0	2057
10	0	0	2064
11	0	0	2059
12	0	0	2054
13	0	0	2061
14	0	0	2067
15	0	0	2076
16	0	0	2071
17	0	0	2066
18	0	0	2064
19	0	0	2059
20	0	0	2057
21	0	0	2068
22	0	0	2072
23	0	0	2070
24	0	0	2065
25	0	0	2064
26	0	0	2065
27	0	0	2072
28	0	0	2068
29	0	0	2062
30	0	0	2060
31	0	0	2062
32	0	0	2061
33	0	0	2065
34	0	0	2065
35	0	0	2072
36	0	0	2072
37	0	0	2072
38	0	0	2059
39	0	0	2059
40	0	0	2051
41	0	0	2078
42	0	0	2078
43	0	0	2059
44	0	0	2065
45	0	0	2060
46	0	0	2081
47	0	0	2056
48	0	0	2038
49	0	0	2066
50	0	0	2080
51	0	0	2063
52	0	0	2064
53	0	0	2049
54	0	0	2054
55	0	0	2075
56	0	0	2078
57	0	0	2073
58	0	0	2067
59	0	0	2072
60	0	0	2062
61	0	0	2067
62	0	0	2063
63	0	0	2064
64	0	0	2068
65	0	0	2066
66	0	0	2067
67	0	0	2068
68	0	0	2068
69	0	0	2063
70	0	0	2064
71	0	0	2070
72	0	0	2076
73	0	0	2059
74	0	0	2062
75	0	0	2058
76	0	0	2074
77	0	0	2050
78	0	0	2052
79	0	0	2073
80	0	0	2079
81	0	0	2079
82	0	0	2060
83	0	0	2060
84	0	0	2061
85	0	0	2068
86	0	0	2070
87	0	0	2070
88	0	0	2066
89	0	0	2068
90	0	0	2063
91	0	0	2069
92	0	0	2061
93	0	0	2065
94	0	0	2069
95	0	0	2064
96	0	0	2071
97	0	0	2071
98	0	0	2064
99	0	0	2066
100	0	0	2061
101	0	0	2065
102	0	0	2063
103	0	0	2061
104	0	0	2066
105	0	0	2061
106	0	0	2076
107	0	0	2067
108	0	0	2064
109	0	0	2063
110	0	0	2064
111	0	0	2068
112	0	0	2065
113	0	0	2066
114	0	0	2070
115	0	0	2065
116	0	0	2066
117	0	0	2062
118	0	0	2063
119	0	0	2060
120	0	0	2053
121	0	0	2062
122	0	0	2066
123	0	0	2071
124	0	0	2063
125	0	0	2066
126	0	0	2063
127	0	0	2060
0	0	0	2066
1	0	0	2069
2	0	0	2068
3	0	0	2060
4	0	0	2056
5	0	0	2065
6	0	0	2071
7	0	0	2066
8	0	0	2069
9	0	0	2068
10	0	0	2068
11	0	0	2064
12	0	0	2057
13	0	0	2056
14	0	0	2066
15	0	0	2054
16	0	0	2063
17	0	0	2069
18	0	0	2072
19	0	0	2068
20	0	0	2068
21	0	0	2064
22	0	0	2068
23	0	0	2074
24	0	0	2054
25	0	0	2039
26	0	0	2073
27	0	0	2070
28	0	0	2064
29	0	0	2064
30	0	0	2069
31	0	0	2074
32	0	0	2071
33	0	0	2064
34	0	0	2063
35	0	0	2066
36	0	0	2067
37	0	0	2065
38	0	0	2068
39	0	0	2072
40	0	0	2067
41	0	0	2070
42	0	0	2068
43	0	0	2060
44	0	0	2062
45	0	0	2064
46	0	0	2067
47	0	0	2067
48	0	0	2066
49	0	0	2065
50	0	0	2063
51	0	0	2062
52	0	0	2063
53	0	0	2065
54	0	0	2067
55	0	0	2064
56	0	0	2070
57	0	0	2073
58	0	0	2063
59	0	0	2063
60	0	0	2064
61	0	0	2063
62	0	0	2066
63	0	0	2066
64	0	0	2068
65	0	0	2067
66	0	0	2067
67	0	0	2062
68	0	0	2061
69	0	0	2062
70	0	0	2062
71	0	0	2062
72	0	0	2064
73	0	0	2066
74	0	0	2068
75	0	0	2066
76	0	0	2068
77	0	0	2067
78	0	0	2063
79	0	0	2059
80	0	0	2066
81	0	0	2066
82	0	0	2065
83	0	0	2061
84	0	0	2062
85	0	0	2063
86	0	0	2061
87	0	0	2067
88	0	0	2065
89	0	0	2062
90	0	0	2062
91	0	0	2059
92	0	0	2065
93	0	0	2063
94	0	0	2063
95	0	0	2066
96	0	0	2063
97	0	0	2063
98	0	0	2063
99	0	0	2063
100	0	0	2063
101	0	0	2065
102	0	0	2065
103	0	0	2067
104	0	0	2059
105	0	0	2060
106	0	0	2061
107	0	0	2065
108	0	0	2059
109	0	0	2062
110	0	0	2066
111	0	0	2065
112	0	0	2065
113	0	0	2066
114	0	0	2063
115	0	0	2065
116	0	0	2059
117	0	0	2061
118	0	0	2063
119	0	0	2063
120	0	0	2069
121	0	0	2072
122	0	0	2061
123	0	0	2060
124	0	0	2062
125	0	0	2062
126	0	0	2062
127	0	0	2068
0	0	0	2069
1	0	0	2066
2	0	0	2066
3	0	0	2069
4	0	0	2063
5	0	0	2055
6	0	0	2063
7	0	0	2062
8	0	0	2067
9	0	0	2065
10	0	0	2066
11	0	0	2062
12	0	0	2066
13	0	0	2066
14	0	0	2067
15	0	0	2072
16	0	0	2067
17	0	0	2069
18	0	0	2070
19	0	0	2073
20	0	0	2078
21	0	0	2070
22	0	0	2068
23	0	0	2059
24	0	0	2048
25	0	0	2048
26	0	0	2051
27	0	0	2076
28	0	0	2071
29	0	0	2070
30	0	0	2065
31	0	0	2057
32	0	0	2062
33	0	0	2068
34	0	0	2073
35	0	0	2074
36	0	0	2072
37	0	0	2067
38	0	0	2066
39	0	0	2069
40	0	0	2073
41	0	0	2058
42	0	0	2060
43	0	0	2063
44	0	0	2067
45	0	0	2069
46	0	0	2070
47	0	0	2065
48	0	0	2060
49	0	0	2063
50	0	0	2069
51	0	0	2068
52	0	0	2063
53	0	0	2064
54	0	0	2073
55	0	0	2071
56	0	0	2066
57	0	0	2068
58	0	0	2066
59	0	0	2070
60	0	0	2068
61	0	0	2071
62	0	0	2071
63	0	0	2070
64	0	0	2068
65	0	0	2062
66	0	0	2059
67	0	0	2067
68	0	0	2070
69	0	0	2067
70	0	0	2065
71	0	0	2071
72	0	0	2067
73	0	0	2062
74	0	0	2064
75	0	0	2063
76	0	0	2064
77	0	0	2068
78	0	0	2066
79	0	0	2067
80	0	0	2066
81	0	0	2071
82	0	0	2071
83	0	0	2069
84	0	0	2067
85	0	0	2065
86	0	0	2065
87	0	0	2066
88	0	0	2061
89	0	0	2061
90	0	0	2063
91	0	0	2065
92	0	0	2071
93	0	0	2069
94	0	0	2065
95	0	0	2060
96	0	0	2057
97	0	0	2058
98	0	0	2057
99	0	0	2071
100	0	0	2068
101	0	0	2069
102	0	0	2073
103	0	0	2067
104	0	0	2073
105	0	0	2064
106	0	0	2063
107	0	0	2065
108	0	0	2060
109	0	0	2063
110	0	0	2064
111	0	0	2060
112	0	0	2061
113	0	0	2065
114	0	0	2063
115	0	0	2063
116	0	0	2065
117	0	0	2077
118	0	0	2085
119	0	0	2072
120	0	0	2068
121	0	0	2069
122	0	0	2061
123	0	0	2052
124	0	0	2055
125	0	0	2039
126	0	0	2044
127	0	0	2052
0	0	0	2072
1	0	0	2069
2	0	0	2067
3	0	0	2071
4	0	0	2071
5	0	0	2074
6	0	0	2071
7	0	0	2070
8	0	0	2069
9	0	0	2059
10	0	0	2057
11	0	0	2051
12	0	0	2061
13	0	0	2071
14	0	0	2066
15	0	0	2064
16	0	0	2060
17	0	0	2071
18	0	0	2063
19	0	0	2063
20	0	0	2064
21	0	0	2070
22	0	0	2074
23	0	0	2073
24	0	0	2072
25	0	0	2069
26	0	0	2069
27	0	0	2064
28	0	0	2051
29	0	0	2051
30	0	0	2059
31	0	0	2075
32	0	0	2068
33	0	0	2069
34	0	0	2068
35	0	0	2072
36	0	0	2073
37	0	0	2065
38	0	0	2070
39	0	0	2070
40	0	0	2067
41	0	0	2068
42	0	0	2064
43	0	0	2068
44	0	0	2062
45	0	0	2065
46	0	0	2061
47	0	0	2060
48	0	0	2062
49	0	0	2065
50	0	0	2065
51	0	0	2065
52	0	0	2064
53	0	0	2068
54	0	0	2068
55	0	0	2066
56	0	0	2065
57	0	0	2067
58	0	0	2064
59	0	0	2061
60	0	0	2063
61	0	0	2066
62	0	0	2066
63	0	0	2067
64	0	0	2075
65	0	0	2071
66	0	0	2066
67	0	0	2063
68	0	0	2059
69	0	0	2064
70	0	0	2063
71	0	0	2065
72	0	0	2064
73	0	0	2065
74	0	0	2063
75	0	0	2069
76	0	0	2065
77	0	0	2069
78	0	0	2068
79	0	0	2068
80	0	0	2068
81	0	0	2063
82	0	0	2061
83	0	0	2063
84	0	0	2059
85	0	0	2064
86	0	0	2068
87	0	0	2062
88	0	0	2061
89	0	0	2065
90	0	0	2072
91	0	0	2078
92	0	0	2071
93	0	0	2071
94	0	0	2068
95	0	0	2057
96	0	0	2062
97	0	0	2060
98	0	0	2058
99	0	0	2062
100	0	0	2063
101	0	0	2058
102	0	0	2059
103	0	0	2072
104	0	0	2073
105	0	0	2072
106	0	0	2064
107	0	0	2056
108	0	0	2067
109	0	0	2073
110	0	0	2073
111	0	0	2075
112	0	0	2068
113	0	0	2072
114	0	0	2063
115	0	0	2070
116	0	0	2067
117	0	0	2060
118	0	0	2065
119	0	0	2061
120	0	0	2064
121	0	0	2061
122	0	0	2066
123	0	0	2062
124	0	0	2064
125	0	0	2063
126	0	0	2062
127	0	0	2063
0	0	0	2064
1	0	0	2071
2	0	0	2072
3	0	0	2070
4	0	0	2074
5	0	0	2074
6	0	0	2070
7	0	0	2065
8	0	0	2062
9	0	0	2061
10	0	0	2063
11	0	0	2060
12	0	0	2060
13	0	0	2062
14	0	0	2061
15	0	0	2071
16	0	0	2069
17	0	0	2073
18	0	0	2069
19	0	0	2062
20	0	0	2057
21	0	0	2059
22	0	0	2068
23	0	0	2071
24	0	0	2071
25	0	0	2069
26	0	0	2062
27	0	0	2065
28	0	0	2061
29	0	0	2064
30	0	0	2063
31	0	0	2070
32	0	0	2067
33	0	0	2068
34	0	0	2068
35	0	0	2065
36	0	0	2064
37	0	0	2066
38	0	0	2063
39	0	0	2062
40	0	0	2064
41	0	0	2063
42	0	0	2062
43	0	0	2064
44	0	0	2061
45	0	0	2065
46	0	0	2069
47	0	0	2068
48	0	0	2065
49	0	0	2062
50	0	0	2069
51	0	0	2068
52	0	0	2068
53	0	0	2067
54	0	0	2063
55	0	0	2064
56	0	0	2067
57	0	0	2067
58	0	0	2062
59	0	0	2063
60	0	0	2062
61	0	0	2067
62	0	0	2062
63	0	0	2065
64	0	0	2066
65	0	0	2069
66	0	0	2072
67	0	0	2069
68	0	0	2065
69	0	0	2066
70	0	0	2063
71	0	0	2062
72	0	0	2062
73	0	0	2063
74	0	0	2066
75	0	0	2070
76	0	0	2074
77	0	0	2067
78	0	0	2063
79	0	0	2064
80	0	0	2063
81	0	0	2067
82	0	0	2067
83	0	0	2070
84	0	0	2067
85	0	0	2064
86	0	0	2053
87	0	0	2053
88	0	0	2051
89	0	0	2056
90	0	0	2070
91	0	0	2067
92	0	0	2072
93	0	0	2080
94	0	0	2076
95	0	0	2073
96	0	0	2062
97	0	0	2054
98	0	0	2054
99	0	0	2054
100	0	0	2059
101	0	0	2073
102	0	0	2071
103	0	0	2071
104	0	0	2065
105	0	0	2068
106	0	0	2075
107	0	0	2080
108	0	0	2075
109	0	0	2065
110	0	0	2063
111	0	0	2059
112	0	0	2057
113	0	0	2055
114	0	0	2057
115	0	0	2069
116	0	0	2070
117	0	0	2071
118	0	0	2068
119	0	0	2068
120	0	0	2064
121	0	0	2068
122	0	0	2069
123	0	0	2066
124	0	0	2062
125	0	0	2067
126	0	0	2066
127	0	0	2065
0	0	0	2064
1	0	0	2065
2	0	0	2065
3	0	0	2064
4	0	0	2065
5	0	0	2070
6	0	0	2070
7	0	0	2066
8	0	0	2067
9	0	0	2062
10	0	0	2054
11	0	0	2055
12	0	0	2055
13	0	0	2051
14	0	0	2072
15	0	0	2077
16	0	0	2076
17	0	0	2073
18	0	0	2066
19	0	0	2064
20	0	0	2061
21	0	0	2061
22	0	0	2067
23	0	0	2072
24	0	0	2066
25	0	0	2069
26	0	0	2067
27	0	0	2064
28	0	0	2067
29	0	0	2062
30	0	0	2064
31	0	0	2066
32	0	0	2068
33	0	0	2067
34	0	0	2061
35	0	0	2065
36	0	0	2064
37	0	0	2064
38	0	0	2069
39	0	0	2071
40	0	0	2068
41	0	0	2073
42	0	0	2069
43	0	0	2065
44	0	0	2066
45	0	0	2069
46	0	0	2060
47	0	0	2052
48	0	0	2046
49	0	0	2044
50	0	0	2059
51	0	0	2076
52	0	0	2082
53	0	0	2079
54	0	0	2069
55	0	0	2067
56	0	0	2058
57	0	0	2058
58	0	0	2063
59	0	0	2064
60	0	0	2065
61	0	0	2075
62	0	0	2066
63	0	0	2072
64	0	0	2066
65	0	0	2068
66	0	0	2074
67	0	0	2066
68	0	0	2070
69	0	0	2061
70	0	0	2059
71	0	0	2058
72	0	0	2054
73	0	0	2057
74	0	0	2067
75	0	0	2071
76	0	0	2065
77	0	0	2070
78	0	0	2067
79	0	0	2065
80	0	0	2069
81	0	0	2069
82	0	0	2068
83	0	0	2065
84	0	0	2063
85	0	0	2064
86	0	0	2072
87	0	0	2064
88	0	0	2063
89	0	0	2064
90	0	0	2059
91	0	0	2061
92	0	0	2069
93	0	0	2067
94	0	0	2072
95	0	0	2073
96	0	0	2068
97	0	0	2071
98	0	0	2063
99	0	0	2065
100	0	0	2063
101	0	0	2059
102	0	0	2060
103	0	0	2058
104	0	0	2066
105	0	0	2070
106	0	0	2067
107	0	0	2066
108	0	0	2067
109	0	0	2067
110	0	0	2067
111	0	0	2064
112	0	0	2068
113	0	0	2069
114	0	0	2066
115	0	0	2066
116	0	0	2061
117	0	0	2061
118	0	0	2064
119	0	0	2066
120	0	0	2070
121	0	0	2065
122	0	0	2075
123	0	0	2068
124	0	0	2070
125	0	0	2062
126	0	0	2062
127	0	0	2063
0	0	0	2055
1	0	0	2062
2	0	0	2067
3	0	0	2070
4	0	0	2067
5	0	0	2067
6	0	0	2071
7	0	0	2067
8	0	0	2059
9	0	0	2054
10	0	0	2057
11	0	0	2062
12	0	0	2076
13	0	0	2078
14	0	0	2076
15	0	0	2071
16	0	0	2075
17	0	0	2070
18	0	0	2062
19	0	0	2065
20	0	0	2061
21	0	0	2053
22	0	0	2054
23	0	0	2055
24	0	0	2060
25	0	0	2070
26	0	0	2070
27	0	0	2066
28	0	0	2069
29	0	0	2069
30	0	0	2068
31	0	0	2064
32	0	0	2068
33	0	0	2073
34	0	0	2073
35	0	0	2070
36	0	0	2072
37	0	0	2072
38	0	0	2066
39	0	0	2061
40	0	0	2065
41	0	0	2063
42	0	0	2063
43	0	0	2062
44	0	0	2070
45	0	0	2067
46	0	0	2061
47	0	0	2057
48	0	0	2055
49	0	0	2050
50	0	0	2060
51	0	0	2070
52	0	0	2073
53	0	0	2075
54	0	0	2072
55	0	0	2063
56	0	0	2048
57	0	0	2054
58	0	0	2062
59	0	0	2076
60	0	0	2083
61	0	0	2081
62	0	0	2076
63	0	0	2073
64	0	0	2068
65	0	0	2056
66	0	0	2062
67	0	0	2061
68	0	0	2050
69	0	0	2057
70	0	0	2070
71	0	0	2076
72	0	0	2067
73	0	0	2061
74	0	0	2050
75	0	0	2061
76	0	0	2061
77	0	0	2070
78	0	0	2072
79	0	0	2065
80	0	0	2066
81	0	0	2054
82	0	0	2064
83	0	0	2073
84	0	0	2071
85	0	0	2076
86	0	0	2069
87	0	0	2071
88	0	0	2068
89	0	0	2064
90	0	0	2062
91	0	0	2060
92	0	0	2066
93	0	0	2068
94	0	0	2064
95	0	0	2060
96	0	0	2061
97	0	0	2070
98	0	0	2070
99	0	0	2073
100	0	0	2068
101	0	0	2065
102	0	0	2068
103	0	0	2064
104	0	0	2062
105	0	0	2059
106	0	0	2063
107	0	0	2070
108	0	0	2068
109	0	0	2077
110	0	0	2075
111	0	0	2064
112	0	0	2066
113	0	0	2071
114	0	0	2078
115	0	0	2065
116	0	0	2061
117	0	0	2054
118	0	0	2042
119	0	0	2039
120	0	0	2050
121	0	0	2059
122	0	0	2080
123	0	0	2079
124	0	0	2069
125	0	0	2070
126	0	0	2068
127	0	0	2067
0	0	0	2071
1	0	0	2076
2	0	0	2078
3	0	0	2070
4	0	0	2069
5	0	0	2069
6	0	0	2064
7	0	0	2068
8	0	0	2069
9	0	0	2073
10	0	0	2068
11	0	0	2066
12	0	0	2059
13	0	0	2048
14	0	0	2049
15	0	0	2040
16	0	0	2054
17	0	0	2058
18	0	0	2088
19	0	0	2087
20	0	0	2069
21	0	0	2063
22	0	0	2058
23	0	0	2056
24	0	0	2067
25	0	0	2055
26	0	0	2072
27	0	0	2079
28	0	0	2073
29	0	0	2067
30	0	0	2062
31	0	0	2066
32	0	0	2076
33	0	0	2077
34	0	0	2073
35	0	0	2065
36	0	0	2062
37	0	0	2062
38	0	0	2059
39	0	0	2065
40	0	0	2063
41	0	0	2057
42	0	0	2060
43	0	0	2064
44	0	0	2075
45	0	0	2062
46	0	0	2056
47	0	0	2059
48	0	0	2053
49	0	0	2067
50	0	0	2070
51	0	0	2068
52	0	0	2078
53	0	0	2073
54	0	0	2080
55	0	0	2079
56	0	0	2071
57	0	0	2066
58	0	0	2060
59	0	0	2071
60	0	0	2072
61	0	0	2068
62	0	0	2063
63	0	0	2064
64	0	0	2062
65	0	0	2048
66	0	0	2031
67	0	0	2028
68	0	0	2057
69	0	0	2086
70	0	0	2076
71	0	0	2061
72	0	0	2068
73	0	0	2081
74	0	0	2080
75	0	0	2072
76	0	0	2068
77	0	0	2067
78	0	0	2060
79	0	0	2072
80	0	0	2076
81	0	0	2074
82	0	0	2067
83	0	0	2063
84	0	0	2057
85	0	0	2049
86	0	0	2067
87	0	0	2066
88	0	0	2062
89	0	0	2057
90	0	0	2066
91	0	0	2069
92	0	0	2068
93	0	0	2065
94	0	0	2059
95	0	0	2060
96	0	0	2065
97	0	0	2056
98	0	0	2038
99	0	0	2055
100	0	0	2066
101	0	0	2091
102	0	0	2092
103	0	0	2080
104	0	0	2078
105	0	0	2084
106	0	0	2075
107	0	0	2067
108	0	0	2064
109	0	0	2054
110	0	0	2043
111	0	0	2041
112	0	0	2062
113	0	0	2065
114	0	0	2058
115	0	0	2049
116	0	0	2069
117	0	0	2091
118	0	0	2076
119	0	0	2071
120	0	0	2060
121	0	0	2055
122	0	0	2074
123	0	0	2056
124	0	0	2057
125	0	0	2065
126	0	0	2062
127	0	0	2081
0	0	0	2077
1	0	0	2072
2	0	0	2060
3	0	0	2059
4	0	0	2061
5	0	0	2044
6	0	0	2067
7	0	0	2074
8	0	0	2077
9	0	0	2078
10	0	0	2074
11	0	0	2079
12	0	0	2066
13	0	0	2066
14	0	0	2078
15	0	0	2074
16	0	0	2050
17	0	0	2052
18	0	0	2050
19	0	0	2059
20	0	0	2063
21	0	0	2075
22	0	0	2064
23	0	0	2076
24	0	0	2077
25	0	0	2065
26	0	0	2050
27	0	0	2056
28	0	0	2048
29	0	0	2062
30	0	0	2075
31	0	0	2088
32	0	0	2073
33	0	0	2064
34	0	0	2056
35	0	0	2059
36	0	0	2073
37	0	0	2074
38	0	0	2074
39	0	0	2077
40	0	0	2089
41	0	0	2085
42	0	0	2076
43	0	0	2060
44	0	0	2040
45	0	0	2020
46	0	0	1991
47	0	0	2021
48	0	0	2071
49	0	0	2102
50	0	0	2113
51	0	0	2119
52	0	0	2100
53	0	0	2077
54	0	0	2059
55	0	0	2042
56	0	0	2039
57	0	0	2037
58	0	0	2056
59	0	0	2066
60	0	0	2065
61	0	0	2040
62	0	0	2045
63	0	0	2061
64	0	0	2099
65	0	0	2095
66	0	0	2073
67	0	0	2080
68	0	0	2060
69	0	0	2049
70	0	0	2080
71	0	0	2067
72	0	0	2059
73	0	0	2084
74	0	0	2079
75	0	0	2074
76	0	0	2066
77	0	0	2070
78	0	0	2052
79	0	0	2057
80	0	0	2077
81	0	0	2064
82	0	0	2089
83	0	0	2065
84	0	0	2069
85	0	0	2046
86	0	0	1996
87	0	0	1968
88	0	0	2051
89	0	0	2115
90	0	0	2101
91	0	0	2096
92	0	0	2103
93	0	0	2090
94	0	0	2087
95	0	0	2095
96	0	0	2071
97	0	0	2069
98	0	0	2064
99	0	0	2049
100	0	0	2021
101	0	0	2064
102	0	0	2055
103	0	0	2023
104	0	0	1994
105	0	0	2007
106	0	0	2112
107	0	0	2107
108	0	0	2092
109	0	0	2090
110	0	0	2082
111	0	0	2082
112	0	0	2061
113	0	0	2053
114	0	0	2019
115	0	0	2075
116	0	0	2073
117	0	0	2106
118	0	0	2069
119	0	0	2062
120	0	0	2047
121	0	0	2042
122	0	0	2043
123	0	0	2097
124	0	0	2114
125	0	0	2110
126	0	0	2092
127	0	0	2090
0	0	0	2045
1	0	0	2001
2	0	0	1953
3	0	0	1999
4	0	0	2101
5	0	0	2101
6	0	0	2079
7	0	0	2100
8	0	0	2089
9	0	0	2076
10	0	0	2069
11	0	0	2033
12	0	0	2043
13	0	0	2069
14	0	0	2088
15	0	0	2103
16	0	0	2095
17	0	0	2038
18	0	0	2013
19	0	0	2045
20	0	0	2058
21	0	0	2088
22	0	0	2087
23	0	0	2033
24	0	0	2040
25	0	0	2033
26	0	0	2065
27	0	0	2084
28	0	0	2089
29	0	0	2064
30	0	0	2087
31	0	0	2106
32	0	0	2086
33	0	0	2070
34	0	0	2085
35	0	0	2054
36	0	0	1951
37	0	0	2007
38	0	0	2059
39	0	0	2054
40	0	0	2091
41	0	0	2090
42	0	0	2111
43	0	0	2120
44	0	0	2049
45	0	0	2061
46	0	0	2090
47	0	0	2090
48	0	0	2049
49	0	0	2059
50	0	0	2069
51	0	0	2108
52	0	0	2099
53	0	0	2097
54	0	0	2030
55	0	0	2041
56	0	0	2020
57	0	0	2048
58	0	0	2043
59	0	0	2051
60	0	0	2059
61	0	0	2036
62	0	0	2027
63	0	0	2096
64	0	0	2101
65	0	0	2077
66	0	0	2030
67	0	0	2030
68	0	0	2078
69	0	0	2188
70	0	0	2128
71	0	0	2065
72	0	0	2027
73	0	0	2029
74	0	0	2049
75	0	0	1943
76	0	0	2013
77	0	0	2136
78	0	0	2107
79	0	0	2110
80	0	0	2131
81	0	0	2086
82	0	0	2056
83	0	0	2026
84	0	0	2046
85	0	0	2043
86	0	0	2057
87	0	0	2091
88	0	0	2130
89	0	0	2045
90	0	0	2074
91	0	0	2064
92	0	0	2033
93	0	0	2019
94	0	0	2034
95	0	0	2092
96	0	0	2134
97	0	0	2087
98	0	0	1991
99	0	0	1995
100	0	0	1936
101	0	0	2050
102	0	0	2147
103	0	0	2173
104	0	0	2129
105	0	0	2088
106	0	0	2035
107	0	0	2006
108	0	0	2044
109	0	0	2066
110	0	0	2039
111	0	0	2113
112	0	0	2140
113	0	0	2095
114	0	0	2090
115	0	0	2098
116	0	0	2060
117	0	0	2014
118	0	0	1967
119	0	0	1951
120	0	0	2125
121	0	0	2148
122	0	0	2159
123	0	0	2166
124	0	0	2108
125	0	0	2030
126	0	0	1953
127	0	0	1969
0	0	0	1953
1	0	0	1986
2	0	0	2124
3	0	0	2161
4	0	0	2095
5	0	0	2095
6	0	0	2118
7	0	0	2081
8	0	0	2063
9	0	0	2027
10	0	0	1970
11	0	0	2061
12	0	0	2097
13	0	0	2077
14	0	0	2087
15	0	0	2055
16	0	0	2114
17	0	0	2109
18	0	0	2055
19	0	0	2056
20	0	0	2042
21	0	0	2003
22	0	0	2108
23	0	0	2112
24	0	0	2077
25	0	0	2091
26	0	0	2091
27	0	0	2043
28	0	0	1961
29	0	0	1957
30	0	0	2070
31	0	0	2143
32	0	0	2170
33	0	0	2113
34	0	0	2054
35	0	0	2003
36	0	0	2003
37	0	0	2040
38	0	0	1996
39	0	0	2100
40	0	0	2089
41	0	0	2146
42	0	0	2122
43	0	0	2092
44	0	0	2048
45	0	0	2070
46	0	0	2069
47	0	0	2071
48	0	0	2093
49	0	0	2033
50	0	0	2004
51	0	0	1974
52	0	0	2061
53	0	0	2078
54	0	0	2102
55	0	0	2063
56	0	0	2027
57	0	0	2031
58	0	0	2068
59	0	0	2084
60	0	0	2115
61	0	0	2111
62	0	0	2097
63	0	0	2111
64	0	0	2093
65	0	0	2030
66	0	0	2008
67	0	0	1970
68	0	0	2066
69	0	0	1965
70	0	0	2080
71	0	0	2039
72	0	0	2134
73	0	0	2095
74	0	0	2095
75	0	0	2000
76	0	0	1958
77	0	0	2041
78	0	0	2136
79	0	0	2093
80	0	0	2168
81	0	0	2170
82	0	0	2122
83	0	0	2069
84	0	0	1982
85	0	0	1964
86	0	0	1997
87	0	0	1966
88	0	0	2019
89	0	0	2042
90	0	0	2004
91	0	0	2129
92	0	0	2127
93	0	0	2141
94	0	0	2190
95	0	0	2122
96	0	0	2045
97	0	0	1987
98	0	0	1996
99	0	0	1978
100	0	0	2004
101	0	0	2043
102	0	0	2103
103	0	0	2121
104	0	0	2160
105	0	0	2117
106	0	0	2085
107	0	0	2093
108	0	0	2107
109	0	0	2072
110	0	0	2028
111	0	0	1999
112	0	0	1975
113	0	0	2033
114	0	0	2025
115	0	0	2155
116	0	0	2262
117	0	0	2195
118	0	0	2111
119	0	0	1994
120	0	0	1919
121	0	0	1823
122	0	0	1807
123	0	0	2029
124	0	0	2196
125	0	0	2245
126	0	0	2327
127	0	0	2248
0	0	0	2139
1	0	0	2006
2	0	0	1879
3	0	0	1848
4	0	0	1895
5	0	0	2051
6	0	0	2069
7	0	0	2106
8	0	0	2088
9	0	0	2148
10	0	0	2160
11	0	0	2058
12	0	0	2063
13	0	0	2059
14	0	0	2104
15	0	0	2133
16	0	0	2172
17	0	0	2212
18	0	0	2153
19	0	0	2036
20	0	0	1985
21	0	0	1921
22	0	0	1884
23	0	0	1979
24	0	0	1893
25	0	0	2041
26	0	0	2150
27	0	0	2212
28	0	0	2173
29	0	0	2064
30	0	0	2063
31	0	0	2056
32	0	0	2029
33	0	0	2006
34	0	0	2039
35	0	0	2142
36	0	0	2090
37	0	0	2056
38	0	0	2086
39	0	0	2166
40	0	0	2158
41	0	0	2060
42	0	0	2034
43	0	0	1947
44	0	0	1930
45	0	0	2016
46	0	0	2141
47	0	0	2095
48	0	0	2080
49	0	0	2079
50	0	0	2000
51	0	0	1993
52	0	0	2114
53	0	0	2131
54	0	0	2073
55	0	0	2084
56	0	0	2057
57	0	0	2013
58	0	0	2026
59	0	0	2010
60	0	0	1990
61	0	0	2052
62	0	0	2149
63	0	0	2151
64	0	0	2096
65	0	0	2086
66	0	0	2049
67	0	0	2035
68	0	0	2083
69	0	0	2159
70	0	0	2108
71	0	0	2095
72	0	0	2133
73	0	0	2080
74	0	0	2026
75	0	0	2009
76	0	0	1915
77	0	0	1934
78	0	0	1994
79	0	0	2139
80	0	0	2115
81	0	0	2082
82	0	0	2126
83	0	0	2069
84	0	0	2026
85	0	0	2075
86	0	0	2065
87	0	0	2044
88	0	0	2119
89	0	0	2148
90	0	0	2140
91	0	0	2078
92	0	0	2041
93	0	0	2025
94	0	0	2020
95	0	0	2002
96	0	0	1986
97	0	0	1955
98	0	0	2030
99	0	0	2104
100	0	0	2145
101	0	0	2128
102	0	0	2109
103	0	0	2094
104	0	0	2087
105	0	0	2041
106	0	0	2073
107	0	0	2094
108	0	0	2064
109	0	0	2018
110	0	0	2009
111	0	0	2081
112	0	0	2088
113	0	0	2106
114	0	0	2067
115	0	0	2042
116	0	0	2001
117	0	0	2054
118	0	0	2073
119	0	0	2018
120	0	0	2114
121	0	0	2138
122	0	0	2149
123	0	0	2090
124	0	0	2004
125	0	0	2027
126	0	0	2017
127	0	0	2004
0	0	0	2051
1	0	0	2015
2	0	0	2110
3	0	0	2075
4	0	0	2031
5	0	0	2091
6	0	0	2112
7	0	0	2144
8	0	0	2098
9	0	0	2095
10	0	0	2033
11	0	0	1964
12	0	0	2022
13	0	0	2119
14	0	0	2031
15	0	0	2056
16	0	0	2070
17	0	0	2060
18	0	0	2084
19	0	0	2108
20	0	0	2108
21	0	0	2058
22	0	0	2063
23	0	0	2052
24	0	0	2120
25	0	0	2083
26	0	0	2017
27	0	0	1978
28	0	0	2086
29	0	0	2056
30	0	0	2020
31	0	0	2095
32	0	0	2078
33	0	0	2017
34	0	0	2082
35	0	0	2127
36	0	0	2176
37	0	0	2137
38	0	0	2069
39	0	0	1982
40	0	0	1984
41	0	0	1927
42	0	0	1945
43	0	0	2085
44	0	0	2170
45	0	0	2123
46	0	0	2083
47	0	0	2079
48	0	0	2062
49	0	0	2065
50	0	0	2108
51	0	0	2158
52	0	0	2127
53	0	0	2077
54	0	0	1987
55	0	0	1932
56	0	0	1955
57	0	0	1939
58	0	0	2101
59	0	0	2216
60	0	0	2150
61	0	0	2099
62	0	0	2067
63	0	0	2028
64	0	0	2034
65	0	0	2064
66	0	0	2089
67	0	0	2077
68	0	0	2048
69	0	0	2084
70	0	0	2084
71	0	0	2104
72	0	0	2106
73	0	0	2079
74	0	0	2058
75	0	0	1976
76	0	0	1908
77	0	0	2058
78	0	0	2095
79	0	0	2115
80	0	0	2121
81	0	0	2131
82	0	0	2093
83	0	0	2052
84	0	0	2040
85	0	0	2051
86	0	0	2026
87	0	0	2117
88	0	0	2170
89	0	0	2084
90	0	0	2088
91	0	0	2031
92	0	0	1956
93	0	0	1903
94	0	0	1966
95	0	0	2095
96	0	0	2149
97	0	0	2109
98	0	0	2163
99	0	0	2078
100	0	0	2022
101	0	0	2025
102	0	0	2012
103	0	0	2054
104	0	0	2103
105	0	0	2122
106	0	0	2104
107	0	0	2101
108	0	0	2065
109	0	0	2034
110	0	0	2012
111	0	0	2008
112	0	0	2096
113	0	0	2146
114	0	0	2132
115	0	0	2072
116	0	0	2056
117	0	0	2020
118	0	0	1934
119	0	0	1971
120	0	0	2036
121	0	0	2133
122	0	0	2162
123	0	0	2174
124	0	0	2157
125	0	0	2122
126	0	0	2052
127	0	0	1995
0	0	0	1905
1	0	0	1896
2	0	0	1975
3	0	0	2076
4	0	0	2106
5	0	0	2137
6	0	0	2129
7	0	0	2125
8	0	0	2132
9	0	0	2138
10	0	0	2095
11	0	0	2060
12	0	0	2049
13	0	0	2018
14	0	0	2038
15	0	0	2076
16	0	0	2031
17	0	0	2057
18	0	0	2036
19	0	0	2050
20	0	0	2108
21	0	0	2099
22	0	0	2064
23	0	0	2021
24	0	0	2007
25	0	0	2031
26	0	0	2055
27	0	0	2088
28	0	0	2154
29	0	0	2111
30	0	0	2074
31	0	0	2058
32	0	0	2055
33	0	0	2056
34	0	0	2115
35	0	0	2079
36	0	0	2087
37	0	0	2029
38	0	0	1994
39	0	0	2004
40	0	0	2028
41	0	0	2079
42	0	0	2096
43	0	0	2071
44	0	0	2074
45	0	0	2048
46	0	0	2073
47	0	0	2135
48	0	0	2094
49	0	0	2066
50	0	0	2071
51	0	0	2081
52	0	0	2058
53	0	0	2070
54	0	0	2100
55	0	0	2077
56	0	0	2065
57	0	0	2080
58	0	0	2019
59	0	0	2009
60	0	0	2017
61	0	0	2039
62	0	0	2116
63	0	0	2088
64	0	0	2064
65	0	0	2024
66	0	0	2028
67	0	0	2125
68	0	0	2146
69	0	0	2071
70	0	0	2033
71	0	0	2087
72	0	0	2020
73	0	0	2035
74	0	0	2004
75	0	0	2045
76	0	0	2043
77	0	0	2025
78	0	0	2119
79	0	0	2155
80	0	0	2159
81	0	0	2081
82	0	0	2034
83	0	0	2029
84	0	0	2026
85	0	0	2040
86	0	0	2071
87	0	0	2093
88	0	0	2079
89	0	0	2071
90	0	0	2103
91	0	0	2117
92	0	0	2105
93	0	0	2068
94	0	0	2017
95	0	0	2046
96	0	0	2000
97	0	0	2001
98	0	0	2075
99	0	0	2071
100	0	0	2058
101	0	0	2050
102	0	0	2103
103	0	0	2120
104	0	0	2117
105	0	0	2075
106	0	0	2065
107	0	0	2066
108	0	0	2035
109	0	0	2045
110	0	0	2040
111	0	0	2086
112	0	0	2110
113	0	0	2068
114	0	0	2025
115	0	0	2027
116	0	0	2065
117	0	0	2075
118	0	0	2068
119	0	0	1995
120	0	0	2065
121	0	0	2100
122	0	0	2103
123	0	0	2083
124	0	0	2079
125	0	0	2072
126	0	0	2073
127	0	0	2063
0	0	0	2032
1	0	0	2020
2	0	0	2052
3	0	0	2080
4	0	0	2095
5	0	0	2100
6	0	0	2078
7	0	0	2078
8	0	0	2074
9	0	0	2086
10	0	0	2081
11	0	0	2076
12	0	0	2074
13	0	0	2061
14	0	0	2054
15	0	0	2061
16	0	0	2053
17	0	0	2028
18	0	0	2034
19	0	0	2086
20	0	0	2038
21	0	0	2039
22	0	0	2041
23	0	0	2079
24	0	0	2084
25	0	0	2082
26	0	0	2083
27	0	0	2077
28	0	0	2070
29	0	0	2064
30	0	0	2064
31	0	0	2089
32	0	0	2078
33	0	0	2077
34	0	0	2062
35	0	0	2059
36	0	0	2048
37	0	0	2025
38	0	0	2058
39	0	0	2063
40	0	0	2064
41	0	0	2075
42	0	0	2082
43	0	0	2079
44	0	0	2084
45	0	0	2084
46	0	0	2078
47	0	0	2075
48	0	0	2058
49	0	0	2023
50	0	0	2012
51	0	0	2061
52	0	0	2056
53	0	0	2043
54	0	0	2074
55	0	0	2086
56	0	0	2080
57	0	0	2072
58	0	0	2070
59	0	0	2077
60	0	0	2060
61	0	0	2065
62	0	0	2061
63	0	0	2071
64	0	0	2073
65	0	0	2076
66	0	0	2071
67	0	0	2067
68	0	0	2064
69	0	0	2067
70	0	0	2077
71	0	0	2060
72	0	0	2052
73	0	0	2058
74	0	0	2041
75	0	0	2019
76	0	0	2053
77	0	0	2071
78	0	0	2084
79	0	0	2105
80	0	0	2089
81	0	0	2080
82	0	0	2064
83	0	0	2075
84	0	0	2063
85	0	0	2053
86	0	0	2083
87	0	0	2086
88	0	0	2053
89	0	0	2045
90	0	0	2053
91	0	0	2035
92	0	0	2001
93	0	0	2057
94	0	0	2073
95	0	0	2057
96	0	0	2086
97	0	0	2092
98	0	0	2096
99	0	0	2075
100	0	0	2072
101	0	0	2072
102	0	0	2071
103	0	0	2071
104	0	0	2060
105	0	0	2058
106	0	0	2054
107	0	0	2057
108	0	0	2054
109	0	0	2077
110	0	0	2079
111	0	0	2067
112	0	0	2062
113	0	0	2059
114	0	0	2080
115	0	0	2088
116	0	0	2080
117	0	0	2079
118	0	0	2067
119	0	0	2059
120	0	0	2048
121	0	0	2026
122	0	0	2064
123	0	0	2044
124	0	0	2080
125	0	0	2088
126	0	0	2063
127	0	0	2052
0	0	0	2080
1	0	0	2073
2	0	0	2062
3	0	0	2053
4	0	0	2069
5	0	0	2063
6	0	0	2066
7	0	0	2073
8	0	0	2062
9	0	0	2058
10	0	0	2059
11	0	0	2054
12	0	0	2067
13	0	0	2063
14	0	0	2064
15	0	0	2064
16	0	0	2070
17	0	0	2056
18	0	0	2060
19	0	0	2063
20	0	0	2058
21	0	0	2062
22	0	0	2069
23	0	0	2071
24	0	0	2068
25	0	0	2062
26	0	0	2060
27	0	0	2072
28	0	0	2063
29	0	0	2071
30	0	0	2070
31	0	0	2068
32	0	0	2064
33	0	0	2072
34	0	0	2062
35	0	0	2072
36	0	0	2074
37	0	0	2062
38	0	0	2057
39	0	0	2052
40	0	0	2048
41	0	0	2073
42	0	0	2080
43	0	0	2074
44	0	0	2073
45	0	0	2067
46	0	0	2067
47	0	0	2068
48	0	0	2084
49	0	0	2075
50	0	0	2083
51	0	0	2063
52	0	0	2053
53	0	0	2041
54	0	0	2063
55	0	0	2052
56	0	0	2033
57	0	0	2049
58	0	0	2084
59	0	0	2080
60	0	0	2078
61	0	0	2084
62	0	0	2074
63	0	0	2071
64	0	0	2069
65	0	0	2071
66	0	0	2069
67	0	0	2068
68	0	0	2069
69	0	0	2064
70	0	0	2069
71	0	0	2068
72	0	0	2069
73	0	0	2074
74	0	0	2073
75	0	0	2069
76	0	0	2068
77	0	0	2068
78	0	0	2086
79	0	0	2080
80	0	0	2069
81	0	0	2065
82	0	0	2035
83	0	0	2025
84	0	0	2010
85	0	0	2059
86	0	0	2074
87	0	0	2090
88	0	0	2074
89	0	0	2056
90	0	0	2070
91	0	0	2082
92	0	0	2077
93	0	0	2074
94	0	0	2071
95	0	0	2067
96	0	0	2063
97	0	0	2060
98	0	0	2056
99	0	0	2064
100	0	0	2065
101	0	0	2069
102	0	0	2064
103	0	0	2064
104	0	0	2064
105	0	0	2067
106	0	0	2070
107	0	0	2069
108	0	0	2071
109	0	0	2065
110	0	0	2066
111	0	0	2062
112	0	0	2052
113	0	0	2052
114	0	0	2058
115	0	0	2046
116	0	0	2055
117	0	0	2074
118	0	0	2069
119	0	0	2068
120	0	0	2069
121	0	0	2066
122	0	0	2060
123	0	0	2058
124	0	0	2062
125	0	0	2063
126	0	0	2062
127	0	0	2063
0	0	0	2072
1	0	0	2076
2	0	0	2073
3	0	0	2065
4	0	0	2064
5	0	0	2062
6	0	0	2058
7	0	0	2061
8	0	0	2061
9	0	0	2062
10	0	0	2062
11	0	0	2064
12	0	0	2061
13	0	0	2062
14	0	0	2063
15	0	0	2064
16	0	0	2057
17	0	0	2065
18	0	0	2063
19	0	0	2059
20	0	0	2057
21	0	0	2062
22	0	0	2061
23	0	0	2071
24	0	0	2062
25	0	0	2064
26	0	0	2067
27	0	0	2069
28	0	0	2064
29	0	0	2074
30	0	0	2063
31	0	0	2068
32	0	0	2075
33	0	0	2069
34	0	0	2066
35	0	0	2063
36	0	0	2061
37	0	0	2062
38	0	0	2066
39	0	0	2069
40	0	0	2080
41	0	0	2069
42	0	0	2073
43	0	0	2068
44	0	0	2062
45	0	0	2059
46	0	0	2033
47	0	0	2050
48	0	0	2076
49	0	0	2070
50	0	0	2068
51	0	0	2086
52	0	0	2076
53	0	0	2076
54	0	0	2062
55	0	0	2060
56	0	0	2067
57	0	0	2066
58	0	0	2067
59	0	0	2078
60	0	0	2073
61	0	0	2071
62	0	0	2066
63	0	0	2075
64	0	0	2072
65	0	0	2068
66	0	0	2073
67	0	0	2065
68	0	0	2071
69	0	0	2065
70	0	0	2049
71	0	0	2060
72	0	0	2083
73	0	0	2071
74	0	0	2065
75	0	0	2049
76	0	0	2066
77	0	0	2066
78	0	0	2059
79	0	0	2051
80	0	0	2081
81	0	0	2082
82	0	0	2076
83	0	0	2072
84	0	0	2069
85	0	0	2064
86	0	0	2065
87	0	0	2059
88	0	0	2061
89	0	0	2071
90	0	0	2066
91	0	0	2063
92	0	0	2066
93	0	0	2070
94	0	0	2074
95	0	0	2065
96	0	0	2063
97	0	0	2064
98	0	0	2067
99	0	0	2065
100	0	0	2060
101	0	0	2064
102	0	0	2068
103	0	0	2067
104	0	0	2066
105	0	0	2064
106	0	0	2065
107	0	0	2068
108	0	0	2059
109	0	0	2060
110	0	0	2060
111	0	0	2070
112	0	0	2071
113	0	0	2067
114	0	0	2065
115	0	0	2066
116	0	0	2068
117	0	0	2065
118	0	0	2062
119	0	0	2067
120	0	0	2064
121	0	0	2067
122	0	0	2055
123	0	0	2053
124	0	0	2070
125	0	0	2066
126	0	0	2062
127	0	0	2063
0	0	0	2064
1	0	0	2065
2	0	0	2066
3	0	0	2067
4	0	0	2063
5	0	0	2069
6	0	0	2076
7	0	0	2071
8	0	0	2072
9	0	0	2067
10	0	0	2055
11	0	0	2050
12	0	0	2052
13	0	0	2045
14	0	0	2063
15	0	0	2071
16	0	0	2070
17	0	0	2070
18	0	0	2068
19	0	0	2070
20	0	0	2067
21	0	0	2061
22	0	0	2064
23	0	0	2065
24	0	0	2066
25	0	0	2070
26	0	0	2062
27	0	0	2061
28	0	0	2061
29	0	0	2065
30	0	0	2064
31	0	0	2062
32	0	0	2064
33	0	0	2065
34	0	0	2062
35	0	0	2063
36	0	0	2061
37	0	0	2065
38	0	0	2065
39	0	0	2061
40	0	0	2065
41	0	0	2062
42	0	0	2062
43	0	0	2064
44	0	0	2059
45	0	0	2063
46	0	0	2060
47	0	0	2064
48	0	0	2066
49	0	0	2063
50	0	0	2065
51	0	0	2063
52	0	0	2062
53	0	0	2065
54	0	0	2062
55	0	0	2064
56	0	0	2064
57	0	0	2062
58	0	0	2068
59	0	0	2066
60	0	0	2060
61	0	0	2055
62	0	0	2059
63	0	0	2061
64	0	0	2065
65	0	0	2065
66	0	0	2070
67	0	0	2071
68	0	0	2059
69	0	0	2061
70	0	0	2062
71	0	0	2067
72	0	0	2066
73	0	0	2062
74	0	0	2058
75	0	0	2058
76	0	0	2061
77	0	0	2065
78	0	0	2065
79	0	0	2065
80	0	0	2065
81	0	0	2065
82	0	0	2066
83	0	0	2064
84	0	0	2061
85	0	0	2065
86	0	0	2060
87	0	0	2064
88	0	0	2065
89	0	0	2064
90	0	0	2064
91	0	0	2069
92	0	0	2069
93	0	0	2063
94	0	0	2061
95	0	0	2062
96	0	0	2064
97	0	0	2064
98	0	0	2067
99	0	0	2066
100	0	0	2059
101	0	0	2061
102	0	0	2064
103	0	0	2063
104	0	0	2068
105	0	0	2069
106	0	0	2069
107	0	0	2071
108	0	0	2069
109	0	0	2064
110	0	0	2067
111	0	0	2068
112	0	0	2064
113	0	0	2067
114	0	0	2067
115	0	0	2069
116	0	0	2065
117	0	0	2066
118	0	0	2067
119	0	0	2068
120	0	0	2061
121	0	0	2066
122	0	0	2069
123	0	0	2074
124	0	0	2065
125	0	0	2066
126	0	0	2064
127	0	0	2064
0	0	0	2065
1	0	0	2068
2	0	0	2065
3	0	0	2065
4	0	0	2066
5	0	0	2063
6	0	0	2067
7	0	0	2068
8	0	0	2066
9	0	0	2072
10	0	0	2079
11	0	0	2074
12	0	0	2067
13	0	0	2064
14	0	0	2066
15	0	0	2068
16	0	0	2065
17	0	0	2066
18	0	0	2066
19	0	0	2071
20	0	0	2067
21	0	0	2066
22	0	0	2067
23	0	0	2065
24	0	0	2066
25	0	0	2068
26	0	0	2065
27	0	0	2072
28	0	0	2080
29	0	0	2074
30	0	0	2072
31	0	0	2078
32	0	0	2067
33	0	0	2060
34	0	0	2057
35	0	0	2055
36	0	0	2064
37	0	0	2071
38	0	0	2066
39	0	0	2063
40	0	0	2058
41	0	0	2073
42	0	0	2080
43	0	0	2071
44	0	0	2071
45	0	0	2063
46	0	0	2068
47	0	0	2068
48	0	0	2069
49	0	0	2075
50	0	0	2073
51	0	0	2067
52	0	0	2063
53	0	0	2061
54	0	0	2066
55	0	0	2061
56	0	0	2057
57	0	0	2062
58	0	0	2072
59	0	0	2083
60	0	0	2070
61	0	0	2067
62	0	0	2076
63	0	0	2067
64	0	0	2068
65	0	0	2069
66	0	0	2067
67	0	0	2067
68	0	0	2070
69	0	0	2065
70	0	0	2070
71	0	0	2061
72	0	0	2066
73	0	0	2066
74	0	0	2067
75	0	0	2069
76	0	0	2069
77	0	0	2069
78	0	0	2066
79	0	0	2066
80	0	0	2069
81	0	0	2067
82	0	0	2067
83	0	0	2067
84	0	0	2064
85	0	0	2063
86	0	0	2066
87	0	0	2068
88	0	0	2071
89	0	0	2066
90	0	0	2067
91	0	0	2065
92	0	0	2060
93	0	0	2060
94	0	0	2061
95	0	0	2062
96	0	0	2067
97	0	0	2065
98	0	0	2071
99	0	0	2075
100	0	0	2068
101	0	0	2065
102	0	0	2063
103	0	0	2061
104	0	0	2060
105	0	0	2062
106	0	0	2064
107	0	0	2062
108	0	0	2062
109	0	0	2066
110	0	0	2078
111	0	0	2075
112	0	0	2065
113	0	0	2069
114	0	0	2070
115	0	0	2062
116	0	0	2068
117	0	0	2068
118	0	0	2063
119	0	0	2065
120	0	0	2065
121	0	0	2057
122	0	0	2051
123	0	0	2054
124	0	0	2062
125	0	0	2053
126	0	0	2061
127	0	0	2062
0	0	0	2070
1	0	0	2071
2	0	0	2067
3	0	0	2068
4	0	0	2074
5	0	0	2071
6	0	0	2069
7	0	0	2066
8	0	0	2066
9	0	0	2061
10	0	0	2071
11	0	0	2074
12	0	0	2068
13	0	0	2065
14	0	0	2063
15	0	0	2065
16	0	0	2068
17	0	0	2075
18	0	0	2072
19	0	0	2064
20	0	0	2063
21	0	0	2065
22	0	0	2064
23	0	0	2063
24	0	0	2066
25	0	0	2065
26	0	0	2063
27	0	0	2073
28	0	0	2071
29	0	0	2066
30	0	0	2069
31	0	0	2063
32	0	0	2058
33	0	0	2057
34	0	0	2064
35	0	0	2075
36	0	0	2074
37	0	0	2072
38	0	0	2071
39	0	0	2067
40	0	0	2061
41	0	0	2065
42	0	0	2064
43	0	0	2059
44	0	0	2062
45	0	0	2068
46	0	0	2076
47	0	0	2072
48	0	0	2064
49	0	0	2066
50	0	0	2062
51	0	0	2064
52	0	0	2072
53	0	0	2068
54	0	0	2073
55	0	0	2064
56	0	0	2067
57	0	0	2064
58	0	0	2063
59	0	0	2066
60	0	0	2064
61	0	0	2054
62	0	0	2060
63	0	0	2070
64	0	0	2072
65	0	0	2074
66	0	0	2071
67	0	0	2069
68	0	0	2067
69	0	0	2063
70	0	0	2062
71	0	0	2059
72	0	0	2061
73	0	0	2055
74	0	0	2063
75	0	0	2051
76	0	0	2062
77	0	0	2069
78	0	0	2072
79	0	0	2058
80	0	0	2062
81	0	0	2078
82	0	0	2067
83	0	0	2061
84	0	0	2062
85	0	0	2070
86	0	0	2077
87	0	0	2076
88	0	0	2080
89	0	0	2072
90	0	0	2066
91	0	0	2067
92	0	0	2057
93	0	0	2055
94	0	0	2057
95	0	0	2053
96	0	0	2049
97	0	0	2050
98	0	0	2073
99	0	0	2071
100	0	0	2065
101	0	0	2073
102	0	0	2070
103	0	0	2070
104	0	0	2068
105	0	0	2060
106	0	0	2071
107	0	0	2068
108	0	0	2067
109	0	0	2071
110	0	0	2061
111	0	0	2059
112	0	0	2058
113	0	0	2058
114	0	0	2060
115	0	0	2062
116	0	0	2063
117	0	0	2063
118	0	0	2060
119	0	0	2060
120	0	0	2061
121	0	0	2063
122	0	0	2061
123	0	0	2060
124	0	0	2078
125	0	0	2070
126	0	0	2064
127	0	0	2059
0	0	0	2053
1	0	0	2058
2	0	0	2065
3	0	0	2063
4	0	0	2057
5	0	0	2063
6	0	0	2060
7	0	0	2060
8	0	0	2060
9	0	0	2058
10	0	0	2065
11	0	0	2059
12	0	0	2062
13	0	0	2064
14	0	0	2065
15	0	0	2065
16	0	0	2065
17	0	0	2071
18	0	0	2078
19	0	0	2070
20	0	0	2063
21	0	0	2057
22	0	0	2057
23	0	0	2054
24	0	0	2052
25	0	0	2059
26	0	0	2050
27	0	0	2059
28	0	0	2067
29	0	0	2076
30	0	0	2079
31	0	0	2076
32	0	0	2073
33	0	0	2075
34	0	0	2070
35	0	0	2070
36	0	0	2071
37	0	0	2065
38	0	0	2067
39	0	0	2071
40	0	0	2068
41	0	0	2069
42	0	0	2087
43	0	0	2072
44	0	0	2072
45	0	0	2061
46	0	0	2050
47	0	0	2046
48	0	0	2041
49	0	0	2046
50	0	0	2048
51	0	0	2054
52	0	0	2073
53	0	0	2061
54	0	0	2069
55	0	0	2070
56	0	0	2077
57	0	0	2085
58	0	0	2079
59	0	0	2070
60	0	0	2066
61	0	0	2071
62	0	0	2073
63	0	0	2071
64	0	0	2071
65	0	0	2071
66	0	0	2072
67	0	0	2072
68	0	0	2062
69	0	0	2064
70	0	0	2062
71	0	0	2061
72	0	0	2063
73	0	0	2056
74	0	0	2068
75	0	0	2068
76	0	0	2059
77	0	0	2055
78	0	0	2061
79	0	0	2063
80	0	0	2068
81	0	0	2067
82	0	0	2073
83	0	0	2073
84	0	0	2068
85	0	0	2070
86	0	0	2070
87	0	0	2068
88	0	0	2066
89	0	0	2065
90	0	0	2064
91	0	0	2058
92	0	0	2065
93	0	0	2066
94	0	0	2064
95	0	0	2065
96	0	0	2064
97	0	0	2068
98	0	0	2064
99	0	0	2069
100	0	0	2070
101	0	0	2063
102	0	0	2069
103	0	0	2068
104	0	0	2071
105	0	0	2075
106	0	0	2068
107	0	0	2065
108	0	0	2062
109	0	0	2060
110	0	0	2057
111	0	0	2061
112	0	0	2063
113	0	0	2066
114	0	0	2064
115	0	0	2067
116	0	0	2065
117	0	0	2074
118	0	0	2071
119	0	0	2070
120	0	0	2066
121	0	0	2066
122	0	0	2062
123	0	0	2061
124	0	0	2069
125	0	0	2067
126	0	0	2061
127	0	0	2059
0	0	0	2063
1	0	0	2066
2	0	0	2063
3	0	0	2062
4	0	0	2061
5	0	0	2069
6	0	0	2068
7	0	0	2072
8	0	0	2069
9	0	0	2065
10	0	0	2067
11	0	0	2072
12	0	0	2069
13	0	0	2066
14	0	0	2062
15	0	0	2059
16	0	0	2077
17	0	0	2068
18	0	0	2065
19	0	0	2064
20	0	0	2071
21	0	0	2069
22	0	0	2071
23	0	0	2064
24	0	0	2060
25	0	0	2059
26	0	0	2056
27	0	0	2055
28	0	0	2068
29	0	0	2075
30	0	0	2074
31	0	0	2065
32	0	0	2068
33	0	0	2069
34	0	0	2070
35	0	0	2077
36	0	0	2073
37	0	0	2071
38	0	0	2070
39	0	0	2066
40	0	0	2067
41	0	0	2062
42	0	0	2056
43	0	0	2055
44	0	0	2055
45	0	0	2058
46	0	0	2061
47	0	0	2060
48	0	0	2068
49	0	0	2064
50	0	0	2067
51	0	0	2071
52	0	0	2066
53	0	0	2073
54	0	0	2063
55	0	0	2066
56	0	0	2066
57	0	0	2072
58	0	0	2070
59	0	0	2066
60	0	0	2060
61	0	0	2054
62	0	0	2050
63	0	0	2056
64	0	0	2060
65	0	0	2074
66	0	0	2073
67	0	0	2071
68	0	0	2074
69	0	0	2074
70	0	0	2070
71	0	0	2069
72	0	0	2064
73	0	0	2054
74	0	0	2055
75	0	0	2065
76	0	0	2073
77	0	0	2072
78	0	0	2072
79	0	0	2071
80	0	0	2066
81	0	0	2059
82	0	0	2054
83	0	0	2052
84	0	0	2055
85	0	0	2058
86	0	0	2062
87	0	0	2069
88	0	0	2063
89	0	0	2050
90	0	0	2060
91	0	0	2071
92	0	0	2079
93	0	0	2074
94	0	0	2071
95	0	0	2072
96	0	0	2068
97	0	0	2067
98	0	0	2068
99	0	0	2077
100	0	0	2075
101	0	0	2071
102	0	0	2068
103	0	0	2062
104	0	0	2062
105	0	0	2057
106	0	0	2053
107	0	0	2052
108	0	0	2057
109	0	0	2048
110	0	0	2060
111	0	0	2080
112	0	0	2091
113	0	0	2072
114	0	0	2066
115	0	0	2068
116	0	0	2062
117	0	0	2066
118	0	0	2062
119	0	0	2057
120	0	0	2062
121	0	0	2061
122	0	0	2062
123	0	0	2063
124	0	0	2060
125	0	0	2058
126	0	0	2061
127	0	0	2079
0	0	0	2083
1	0	0	2080
2	0	0	2074
3	0	0	2076
4	0	0	2066
5	0	0	2062
6	0	0	2061
7	0	0	2051
8	0	0	2044
9	0	0	2049
10	0	0	2057
11	0	0	2067
12	0	0	2069
13	0	0	2086
14	0	0	2076
15	0	0	2082
16	0	0	2085
17	0	0	2074
18	0	0	2062
19	0	0	2065
20	0	0	2064
21	0	0	2050
22	0	0	2040
23	0	0	2028
24	0	0	2043
25	0	0	2056
26	0	0	2063
27	0	0	2068
28	0	0	2082
29	0	0	2088
30	0	0	2083
31	0	0	2085
32	0	0	2068
33	0	0	2066
34	0	0	2072
35	0	0	2063
36	0	0	2069
37	0	0	2061
38	0	0	2052
39	0	0	2052
40	0	0	2048
41	0	0	2062
42	0	0	2057
43	0	0	2069
44	0	0	2057
45	0	0	2055
46	0	0	2058
47	0	0	2067
48	0	0	2089
49	0	0	2085
50	0	0	2073
51	0	0	2072
52	0	0	2075
53	0	0	2065
54	0	0	2073
55	0	0	2072
56	0	0	2062
57	0	0	2052
58	0	0	2046
59	0	0	2055
60	0	0	2062
61	0	0	2070
62	0	0	2066
63	0	0	2080
64	0	0	2088
65	0	0	2103
66	0	0	2104
67	0	0	2090
68	0	0	2071
69	0	0	2040
70	0	0	2029
71	0	0	2026
72	0	0	2022
73	0	0	2031
74	0	0	2053
75	0	0	2081
76	0	0	2088
77	0	0	2077
78	0	0	2078
79	0	0	2067
80	0	0	2061
81	0	0	2052
82	0	0	2056
83	0	0	2076
84	0	0	2079
85	0	0	2067
86	0	0	2066
87	0	0	2070
88	0	0	2077
89	0	0	2078
90	0	0	2074
91	0	0	2063
92	0	0	2072
93	0	0	2077
94	0	0	2071
95	0	0	2071
96	0	0	2065
97	0	0	2069
98	0	0	2067
99	0	0	2058
100	0	0	2043
101	0	0	2033
102	0	0	2033
103	0	0	2058
104	0	0	2079
105	0	0	2098
106	0	0	2095
107	0	0	2064
108	0	0	2059
109	0	0	2067
110	0	0	2065
111	0	0	2059
112	0	0	2063
113	0	0	2052
114	0	0	2053
115	0	0	2063
116	0	0	2071
117	0	0	2071
118	0	0	2072
119	0	0	2082
120	0	0	2066
121	0	0	2064
122	0	0	2074
123	0	0	2095
124	0	0	2063
125	0	0	2059
126	0	0	2056
127	0	0	2049
0	0	0	2035
1	0	0	2040
2	0	0	2060
3	0	0	2099
4	0	0	2085
5	0	0	2085
6	0	0	2081
7	0	0	2080
8	0	0	2088
9	0	0	2058
10	0	0	2076
11	0	0	2083
12	0	0	2065
13	0	0	2058
14	0	0	2052
15	0	0	2050
16	0	0	2061
17	0	0	2070
18	0	0	2067
19	0	0	2058
20	0	0	2065
21	0	0	2063
22	0	0	2052
23	0	0	2059
24	0	0	2067
25	0	0	2067
26	0	0	2086
27	0	0	2071
28	0	0	2066
29	0	0	2061
30	0	0	2071
31	0	0	2066
32	0	0	2074
33	0	0	2081
34	0	0	2078
35	0	0	2095
36	0	0	2083
37	0	0	2072
38	0	0	2071
39	0	0	2066
40	0	0	2062
41	0	0	2053
42	0	0	2048
43	0	0	2048
44	0	0	2053
45	0	0	2068
46	0	0	2059
47	0	0	2063
48	0	0	2075
49	0	0	2085
50	0	0	2075
51	0	0	2075
52	0	0	2054
53	0	0	2055
54	0	0	2062
55	0	0	2078
56	0	0	2069
57	0	0	2080
58	0	0	2088
59	0	0	2073
60	0	0	2073
61	0	0	2066
62	0	0	2062
63	0	0	2055
64	0	0	2063
65	0	0	2073
66	0	0	2075
67	0	0	2037
68	0	0	2046
69	0	0	2065
70	0	0	2061
71	0	0	2071
72	0	0	2075
73	0	0	2079
74	0	0	2069
75	0	0	2075
76	0	0	2072
77	0	0	2031
78	0	0	2027
79	0	0	2014
80	0	0	2023
81	0	0	2083
82	0	0	2106
83	0	0	2115
84	0	0	2093
85	0	0	2091
86	0	0	2081
87	0	0	2079
88	0	0	2073
89	0	0	2064
90	0	0	2063
91	0	0	2056
92	0	0	2031
93	0	0	2050
94	0	0	2055
95	0	0	2084
96	0	0	2074
97	0	0	2053
98	0	0	2038
99	0	0	2043
100	0	0	2045
101	0	0	2065
102	0	0	2089
103	0	0	2104
104	0	0	2098
105	0	0	2087
106	0	0	2056
107	0	0	2045
108	0	0	2020
109	0	0	2031
110	0	0	2060
111	0	0	2053
112	0	0	2024
113	0	0	2039
114	0	0	2104
115	0	0	2083
116	0	0	2059
117	0	0	2062
118	0	0	2088
119	0	0	2095
120	0	0	2082
121	0	0	2042
122	0	0	2050
123	0	0	2042
124	0	0	2064
125	0	0	2091
126	0	0	2071
127	0	0	2025
0	0	0	2020
1	0	0	2090
2	0	0	2093
3	0	0	2076
4	0	0	2053
5	0	0	2065
6	0	0	2068
7	0	0	2042
8	0	0	2053
9	0	0	2069
10	0	0	2118
11	0	0	2110
12	0	0	2092
13	0	0	2051
14	0	0	2016
15	0	0	2022
16	0	0	2052
17	0	0	2124
18	0	0	2057
19	0	0	2022
20	0	0	2002
21	0	0	2082
22	0	0	2086
23	0	0	2108
24	0	0	2077
25	0	0	2036
26	0	0	2085
27	0	0	2072
28	0	0	2076
29	0	0	2072
30	0	0	2101
31	0	0	2009
32	0	0	1993
33	0	0	2053
34	0	0	2129
35	0	0	2199
36	0	0	2126
37	0	0	2072
38	0	0	2023
39	0	0	1967
40	0	0	1883
41	0	0	1952
42	0	0	2067
43	0	0	2132
44	0	0	2180
45	0	0	2172
46	0	0	2152
47	0	0	2094
48	0	0	2028
49	0	0	2018
50	0	0	2013
51	0	0	1941
52	0	0	1902
53	0	0	1996
54	0	0	2093
55	0	0	2176
56	0	0	2176
57	0	0	2132
58	0	0	2123
59	0	0	2135
60	0	0	2117
61	0	0	2090
62	0	0	2042
63	0	0	1952
64	0	0	1978
65	0	0	2012
66	0	0	2029
67	0	0	2074
68	0	0	2085
69	0	0	2095
70	0	0	2082
71	0	0	2026
72	0	0	2055
73	0	0	2151
74	0	0	2121
75	0	0	2083
76	0	0	2109
77	0	0	2104
78	0	0	2074
79	0	0	2004
80	0	0	1876
81	0	0	1938
82	0	0	2041
83	0	0	2059
84	0	0	2105
85	0	0	2115
86	0	0	2118
87	0	0	2116
88	0	0	2103
89	0	0	2098
90	0	0	2109
91	0	0	2095
92	0	0	2082
93	0	0	2070
94	0	0	2024
95	0	0	2055
96	0	0	2055
97	0	0	2078
98	0	0	1999
99	0	0	1992
100	0	0	2091
101	0	0	2133
102	0	0	2091
103	0	0	2073
104	0	0	2097
105	0	0	2081
106	0	0	2139
107	0	0	2091
108	0	0	2054
109	0	0	2036
110	0	0	2006
111	0	0	2004
112	0	0	2099
113	0	0	2024
114	0	0	1973
115	0	0	2021
116	0	0	2108
117	0	0	2168
118	0	0	2169
119	0	0	2072
120	0	0	2039
121	0	0	2049
122	0	0	2019
123	0	0	2061
124	0	0	2170
125	0	0	2092
126	0	0	2011
127	0	0	2017
0	0	0	2003
1	0	0	2069
2	0	0	2091
3	0	0	2089
4	0	0	2090
5	0	0	2131
6	0	0	2123
7	0	0	2112
8	0	0	2107
9	0	0	2129
10	0	0	2066
11	0	0	1969
12	0	0	1960
13	0	0	1855
14	0	0	1973
15	0	0	2118
16	0	0	2155
17	0	0	2136
18	0	0	2116
19	0	0	2159
20	0	0	2090
21	0	0	2000
22	0	0	2032
23	0	0	2062
24	0	0	2057
25	0	0	2027
26	0	0	1985
27	0	0	2041
28	0	0	2094
29	0	0	2118
30	0	0	2140
31	0	0	2110
32	0	0	2051
33	0	0	2061
34	0	0	2138
35	0	0	2124
36	0	0	2111
37	0	0	2060
38	0	0	2040
39	0	0	2027
40	0	0	1928
41	0	0	1968
42	0	0	1997
43	0	0	1969
44	0	0	2067
45	0	0	2015
46	0	0	2106
47	0	0	2153
48	0	0	2160
49	0	0	2195
50	0	0	2158
51	0	0	2084
52	0	0	2007
53	0	0	1957
54	0	0	1984
55	0	0	2080
56	0	0	2100
57	0	0	2151
58	0	0	2169
59	0	0	2104
60	0	0	2063
61	0	0	2011
62	0	0	2017
63	0	0	2005
64	0	0	1962
65	0	0	1991
66	0	0	2154
67	0	0	2121
68	0	0	2031
69	0	0	2104
70	0	0	2179
71	0	0	2127
72	0	0	2051
73	0	0	1998
74	0	0	1963
75	0	0	1913
76	0	0	2060
77	0	0	2068
78	0	0	2102
79	0	0	2124
80	0	0	2121
81	0	0	2149
82	0	0	2145
83	0	0	2094
84	0	0	2023
85	0	0	1990
86	0	0	1972
87	0	0	2046
88	0	0	2051
89	0	0	2086
90	0	0	2067
91	0	0	2079
92	0	0	2114
93	0	0	2126
94	0	0	2100
95	0	0	2035
96	0	0	2013
97	0	0	1997
98	0	0	2038
99	0	0	2024
100	0	0	2084
101	0	0	2120
102	0	0	2130
103	0	0	2076
104	0	0	2066
105	0	0	2016
106	0	0	1990
107	0	0	2051
108	0	0	2027
109	0	0	2023
110	0	0	2119
111	0	0	2159
112	0	0	2139
113	0	0	2135
114	0	0	2082
115	0	0	2003
116	0	0	2003
117	0	0	2021
118	0	0	2038
119	0	0	2087
120	0	0	2093
121	0	0	2066
122	0	0	2053
123	0	0	2105
124	0	0	2033
125	0	0	2057
126	0	0	2075
127	0	0	2096
0	0	0	2031
1	0	0	2027
2	0	0	2053
3	0	0	1962
4	0	0	1984
5	0	0	2113
6	0	0	2213
7	0	0	2140
8	0	0	2070
9	0	0	2040
10	0	0	1981
11	0	0	1960
12	0	0	2034
13	0	0	2099
14	0	0	2165
15	0	0	2193
16	0	0	2170
17	0	0	2078
18	0	0	2050
19	0	0	2002
20	0	0	1938
21	0	0	2006
22	0	0	2056
23	0	0	2056
24	0	0	2052
25	0	0	2094
26	0	0	2089
27	0	0	2075
28	0	0	2136
29	0	0	2125
30	0	0	2114
31	0	0	2059
32	0	0	1992
33	0	0	1984
34	0	0	2005
35	0	0	2068
36	0	0	2122
37	0	0	2085
38	0	0	2120
39	0	0	2104
40	0	0	2014
41	0	0	1977
42	0	0	1999
43	0	0	2040
44	0	0	2144
45	0	0	2155
46	0	0	2137
47	0	0	2114
48	0	0	2091
49	0	0	2012
50	0	0	1904
51	0	0	1929
52	0	0	2103
53	0	0	2147
54	0	0	2113
55	0	0	2057
56	0	0	2031
57	0	0	2049
58	0	0	2072
59	0	0	2057
60	0	0	2111
61	0	0	2088
62	0	0	2066
63	0	0	2080
64	0	0	2103
65	0	0	2065
66	0	0	2048
67	0	0	2072
68	0	0	2071
69	0	0	2073
70	0	0	2003
71	0	0	2081
72	0	0	2044
73	0	0	2042
74	0	0	1964
75	0	0	1995
76	0	0	2072
77	0	0	2110
78	0	0	2092
79	0	0	2076
80	0	0	2068
81	0	0	2094
82	0	0	2151
83	0	0	2088
84	0	0	2012
85	0	0	2080
86	0	0	2108
87	0	0	2124
88	0	0	2060
89	0	0	1988
90	0	0	2034
91	0	0	2088
92	0	0	2097
93	0	0	2079
94	0	0	2096
95	0	0	2054
96	0	0	2026
97	0	0	1996
98	0	0	2121
99	0	0	2084
100	0	0	2131
101	0	0	2073
102	0	0	2019
103	0	0	2021
104	0	0	1954
105	0	0	2048
106	0	0	2131
107	0	0	2156
108	0	0	2113
109	0	0	2059
110	0	0	2018
111	0	0	2017
112	0	0	2059
113	0	0	2048
114	0	0	2024
115	0	0	2116
116	0	0	2096
117	0	0	2065
118	0	0	2043
119	0	0	2078
120	0	0	2092
121	0	0	2081
122	0	0	2087
123	0	0	2049
124	0	0	2023
125	0	0	2039
126	0	0	2104
127	0	0	2090
0	0	0	2036
1	0	0	2044
2	0	0	2061
3	0	0	2037
4	0	0	2073
5	0	0	2072
6	0	0	2080
7	0	0	2041
8	0	0	2108
9	0	0	2106
10	0	0	2065
11	0	0	2020
12	0	0	2020
13	0	0	2015
14	0	0	1969
15	0	0	2066
16	0	0	2123
17	0	0	2099
18	0	0	2049
19	0	0	2014
20	0	0	1999
21	0	0	2119
22	0	0	2149
23	0	0	2099
24	0	0	2068
25	0	0	2055
26	0	0	2046
27	0	0	2018
28	0	0	2082
29	0	0	2110
30	0	0	2061
31	0	0	2045
32	0	0	2067
33	0	0	2094
34	0	0	2098
35	0	0	2031
36	0	0	2010
37	0	0	2024
38	0	0	2042
39	0	0	2103
40	0	0	2120
41	0	0	2113
42	0	0	2083
43	0	0	2081
44	0	0	2033
45	0	0	2003
46	0	0	2024
47	0	0	2079
48	0	0	2034
49	0	0	1995
50	0	0	2086
51	0	0	2063
52	0	0	2064
53	0	0	2069
54	0	0	2100
55	0	0	2095
56	0	0	2098
57	0	0	2083
58	0	0	2071
59	0	0	2088
60	0	0	2068
61	0	0	2080
62	0	0	2090
63	0	0	2060
64	0	0	2024
65	0	0	2082
66	0	0	2029
67	0	0	2046
68	0	0	2083
69	0	0	2058
70	0	0	2031
71	0	0	2000
72	0	0	2056
73	0	0	2101
74	0	0	2145
75	0	0	2149
76	0	0	2089
77	0	0	2029
78	0	0	1976
79	0	0	1987
80	0	0	2026
81	0	0	2032
82	0	0	2065
83	0	0	2141
84	0	0	2083
85	0	0	2042
86	0	0	2048
87	0	0	2095
88	0	0	2130
89	0	0	2095
90	0	0	2074
91	0	0	2025
92	0	0	2019
93	0	0	2066
94	0	0	2090
95	0	0	2079
96	0	0	2015
97	0	0	2039
98	0	0	2125
99	0	0	2116
100	0	0	2102
101	0	0	2078
102	0	0	2000
103	0	0	2018
104	0	0	2054
105	0	0	1993
106	0	0	2072
107	0	0	2100
108	0	0	2078
109	0	0	2030
110	0	0	2014
111	0	0	2009
112	0	0	2099
113	0	0	2136
114	0	0	2108
115	0	0	2083
116	0	0	2066
117	0	0	2015
118	0	0	2030
119	0	0	2066
120	0	0	2155
121	0	0	2127
122	0	0	2053
123	0	0	2021
124	0	0	2022
125	0	0	2032
126	0	0	2018
127	0	0	2135
0	0	0	2151
1	0	0	2082
2	0	0	2038
3	0	0	1997
4	0	0	1983
5	0	0	2094
6	0	0	2114
7	0	0	2147
8	0	0	2123
9	0	0	2073
10	0	0	1989
11	0	0	1930
12	0	0	1920
13	0	0	2019
14	0	0	2143
15	0	0	2172
16	0	0	2145
17	0	0	2096
18	0	0	2085
19	0	0	2101
20	0	0	2125
21	0	0	2109
22	0	0	2093
23	0	0	2038
24	0	0	1999
25	0	0	1934
26	0	0	1961
27	0	0	1997
28	0	0	2107
29	0	0	2132
30	0	0	2160
31	0	0	2089
32	0	0	2056
33	0	0	2087
34	0	0	2109
35	0	0	2087
36	0	0	2024
37	0	0	2009
38	0	0	2030
39	0	0	2019
40	0	0	2104
41	0	0	2131
42	0	0	2072
43	0	0	2065
44	0	0	2010
45	0	0	2021
46	0	0	2024
47	0	0	2080
48	0	0	2089
49	0	0	2114
50	0	0	2127
51	0	0	2127
52	0	0	2098
53	0	0	2043
54	0	0	2004
55	0	0	2017
56	0	0	2009
57	0	0	2034
58	0	0	2101
59	0	0	2122
60	0	0	2140
61	0	0	2108
62	0	0	2097
63	0	0	2032
64	0	0	1957
65	0	0	1915
66	0	0	1989
67	0	0	2100
68	0	0	2180
69	0	0	2179
70	0	0	2136
71	0	0	2096
72	0	0	2015
73	0	0	1985
74	0	0	1993
75	0	0	1984
76	0	0	1990
77	0	0	2078
78	0	0	2132
79	0	0	2118
80	0	0	2085
81	0	0	2055
82	0	0	2132
83	0	0	2126
84	0	0	2116
85	0	0	2087
86	0	0	2020
87	0	0	1969
88	0	0	1959
89	0	0	2003
90	0	0	2025
91	0	0	1980
92	0	0	2094
93	0	0	2133
94	0	0	2085
95	0	0	2075
96	0	0	2072
97	0	0	2070
98	0	0	2077
99	0	0	2117
100	0	0	2057
101	0	0	1999
102	0	0	2002
103	0	0	1998
104	0	0	2043
105	0	0	2116
106	0	0	2129
107	0	0	2070
108	0	0	2133
109	0	0	2112
110	0	0	2069
111	0	0	2041
112	0	0	2019
113	0	0	2063
114	0	0	2063
115	0	0	2098
116	0	0	2083
117	0	0	2088
118	0	0	2031
119	0	0	2008
120	0	0	2050
121	0	0	2127
122	0	0	2097
123	0	0	2096
124	0	0	2100
125	0	0	2067
126	0	0	2034
127	0	0	2083
0	0	0	2064
1	0	0	2019
2	0	0	2005
3	0	0	2091
4	0	0	2094
5	0	0	2069
6	0	0	2061
7	0	0	2103
8	0	0	2110
9	0	0	2092
10	0	0	2084
11	0	0	2069
12	0	0	1997
13	0	0	1933
14	0	0	1992
15	0	0	2094
16	0	0	2152
17	0	0	2121
18	0	0	2089
19	0	0	2097
20	0	0	2073
21	0	0	2053
22	0	0	2063
23	0	0	2084
24	0	0	2081
25	0	0	2041
26	0	0	2050
27	0	0	2073
28	0	0	2055
29	0	0	2064
30	0	0	2055
31	0	0	2051
32	0	0	2076
33	0	0	2074
34	0	0	2071
35	0	0	2065
36	0	0	2081
37	0	0	2071
38	0	0	2064
39	0	0	2056
40	0	0	2084
41	0	0	2023
42	0	0	2095
43	0	0	2080
44	0	0	2075
45	0	0	2053
46	0	0	2051
47	0	0	2070
48	0	0	2087
49	0	0	2056
50	0	0	2043
51	0	0	2049
52	0	0	2085
53	0	0	2095
54	0	0	2057
55	0	0	2077
56	0	0	2081
57	0	0	2057
58	0	0	2025
59	0	0	2056
60	0	0	2039
61	0	0	2038
62	0	0	2068
63	0	0	2073
64	0	0	2096
65	0	0	2079
66	0	0	2062
67	0	0	2085
68	0	0	2067
69	0	0	2045
70	0	0	2083
71	0	0	2087
72	0	0	2067
73	0	0	2044
74	0	0	2049
75	0	0	2071
76	0	0	2082
77	0	0	2068
78	0	0	2070
79	0	0	2046
80	0	0	2053
81	0	0	2064
82	0	0	2091
83	0	0	2125
84	0	0	2113
85	0	0	2072
86	0	0	2031
87	0	0	1997
88	0	0	1967
89	0	0	1997
90	0	0	2083
91	0	0	2121
92	0	0	2090
93	0	0	2043
94	0	0	2038
95	0	0	2098
96	0	0	2104
97	0	0	2086
98	0	0	2065
99	0	0	2066
100	0	0	2059
101	0	0	2050
102	0	0	2091
103	0	0	2102
104	0	0	2080
105	0	0	2080
106	0	0	2064
107	0	0	2071
108	0	0	2068
109	0	0	2035
110	0	0	2042
111	0	0	2038
112	0	0	2043
113	0	0	2030
114	0	0	2069
115	0	0	2096
116	0	0	2091
117	0	0	2076
118	0	0	2070
119	0	0	2071
120	0	0	2077
121	0	0	2073
122	0	0	2065
123	0	0	2064
124	0	0	2065
125	0	0	2071
126	0	0	2060
127	0	0	2063
0	0	0	2076
1	0	0	2082
2	0	0	2070
3	0	0	2065
4	0	0	2056
5	0	0	2061
6	0	0	2055
7	0	0	2052
8	0	0	2050
9	0	0	2049
10	0	0	2065
11	0	0	2069
12	0	0	2077
13	0	0	2073
14	0	0	2073
15	0	0	2065
16	0	0	2068
17	0	0	2071
18	0	0	2067
19	0	0	2053
20	0	0	2055
21	0	0	2075
22	0	0	2074
23	0	0	2066
24	0	0	2064
25	0	0	2062
26	0	0	2063
27	0	0	2064
28	0	0	2071
29	0	0	2066
30	0	0	2065
31	0	0	2072
32	0	0	2071
33	0	0	2072
34	0	0	2065
35	0	0	2069
36	0	0	2065
37	0	0	2072
38	0	0	2066
39	0	0	2063
40	0	0	2061
41	0	0	2064
42	0	0	2067
43	0	0	2071
44	0	0	2057
45	0	0	2055
46	0	0	2070
47	0	0	2070
48	0	0	2076
49	0	0	2072
50	0	0	2069
51	0	0	2061
52	0	0	2068
53	0	0	2070
54	0	0	2068
55	0	0	2067
56	0	0	2069
57	0	0	2070
58	0	0	2075
59	0	0	2068
60	0	0	2063
61	0	0	2073
62	0	0	2069
63	0	0	2070
64	0	0	2063
65	0	0	2061
66	0	0	2065
67	0	0	2064
68	0	0	2058
69	0	0	2072
70	0	0	2068
71	0	0	2066
72	0	0	2068
73	0	0	2080
74	0	0	2071
75	0	0	2058
76	0	0	2049
77	0	0	2064
78	0	0	2070
79	0	0	2074
80	0	0	2058
81	0	0	2078
82	0	0	2074
83	0	0	2082
84	0	0	2077
85	0	0	2068
86	0	0	2053
87	0	0	2053
88	0	0	2061
89	0	0	2077
90	0	0	2073
91	0	0	2080
92	0	0	2079
93	0	0	2072
94	0	0	2072
95	0	0	2067
96	0	0	2070
97	0	0	2053
98	0	0	2071
99	0	0	2074
100	0	0	2070
101	0	0	2070
102	0	0	2072
103	0	0	2073
104	0	0	2065
105	0	0	2068
106	0	0	2064
107	0	0	2064
108	0	0	2062
109	0	0	2072
110	0	0	2083
111	0	0	2071
112	0	0	2062
113	0	0	2067
114	0	0	2074
115	0	0	2070
116	0	0	2066
117	0	0	2062
118	0	0	2063
119	0	0	2068
120	0	0	2070
121	0	0	2069
122	0	0	2069
123	0	0	2063
124	0	0	2061
125	0	0	2065
126	0	0	2062
127	0	0	2063
0	0	0	2060
1	0	0	2068
2	0	0	2069
3	0	0	2067
4	0	0	2074
5	0	0	2076
6	0	0	2070
7	0	0	2062
8	0	0	2058
9	0	0	2060
10	0	0	2064
11	0	0	2062
12	0	0	2062
13	0	0	2063
14	0	0	2068
15	0	0	2068
16	0	0	2066
17	0	0	2063
18	0	0	2071
19	0	0	2075
20	0	0	2069
21	0	0	2064
22	0	0	2064
23	0	0	2061
24	0	0	2067
25	0	0	2060
26	0	0	2064
27	0	0	2068
28	0	0	2079
29	0	0	2073
30	0	0	2070
31	0	0	2071
32	0	0	2074
33	0	0	2060
34	0	0	2061
35	0	0	2062
36	0	0	2069
37	0	0	2070
38	0	0	2065
39	0	0	2068
40	0	0	2069
41	0	0	2067
42	0	0	2073
43	0	0	2068
44	0	0	2073
45	0	0	2066
46	0	0	2068
47	0	0	2068
48	0	0	2065
49	0	0	2067
50	0	0	2063
51	0	0	2062
52	0	0	2059
53	0	0	2055
54	0	0	2061
55	0	0	2065
56	0	0	2067
57	0	0	2069
58	0	0	2060
59	0	0	2061
60	0	0	2065
61	0	0	2066
62	0	0	2066
63	0	0	2066
64	0	0	2065
65	0	0	2065
66	0	0	2065
67	0	0	2068
68	0	0	2062
69	0	0	2062
70	0	0	2065
71	0	0	2060
72	0	0	2066
73	0	0	2059
74	0	0	2062
75	0	0	2063
76	0	0	2063
77	0	0	2066
78	0	0	2058
79	0	0	2059
80	0	0	2067
81	0	0	2063
82	0	0	2064
83	0	0	2063
84	0	0	2064
85	0	0	2063
86	0	0	2065
87	0	0	2060
88	0	0	2060
89	0	0	2064
90	0	0	2067
91	0	0	2065
92	0	0	2070
93	0	0	2060
94	0	0	2061
95	0	0	2067
96	0	0	2064
97	0	0	2067
98	0	0	2067
99	0	0	2063
100	0	0	2057
101	0	0	2060
102	0	0	2062
103	0	0	2064
104	0	0	2068
105	0	0	2065
106	0	0	2067
107	0	0	2064
108	0	0	2057
109	0	0	2068
110	0	0	2071
111	0	0	2067
112	0	0	2067
113	0	0	2064
114	0	0	2058
115	0	0	2062
116	0	0	2062
117	0	0	2064
118	0	0	2066
119	0	0	2069
120	0	0	2071
121	0	0	2067
122	0	0	2062
123	0	0	2059
124	0	0	2067
125	0	0	2068
126	0	0	2063
127	0	0	2067
0	0	0	2064
1	0	0	2064
2	0	0	2067
3	0	0	2065
4	0	0	2064
5	0	0	2063
6	0	0	2068
7	0	0	2067
8	0	0	2063
9	0	0	2060
10	0	0	2063
11	0	0	2064
12	0	0	2065
13	0	0	2068
14	0	0	2071
15	0	0	2072
16	0	0	2070
17	0	0	2065
18	0	0	2071
19	0	0	2069
20	0	0	2059
21	0	0	2058
22	0	0	2062
23	0	0	2065
24	0	0	2063
25	0	0	2063
26	0	0	2065
27	0	0	2072
28	0	0	2063
29	0	0	2067
30	0	0	2070
31	0	0	2072
32	0	0	2068
33	0	0	2064
34	0	0	2064
35	0	0	2065
36	0	0	2067
37	0	0	2066
38	0	0	2067
39	0	0	2068
40	0	0	2065
41	0	0	2058
42	0	0	2066
43	0	0	2061
44	0	0	2065
45	0	0	2064
46	0	0	2074
47	0	0	2067
48	0	0	2069
49	0	0	2067
50	0	0	2062
51	0	0	2066
52	0	0	2066
53	0	0	2070
54	0	0	2070
55	0	0	2066
56	0	0	2061
57	0	0	2058
58	0	0	2061
59	0	0	2066
60	0	0	2066
61	0	0	2066
62	0	0	2066
63	0	0	2063
64	0	0	2066
65	0	0	2064
66	0	0	2066
67	0	0	2063
68	0	0	2065
69	0	0	2066
70	0	0	2066
71	0	0	2065
72	0	0	2065
73	0	0	2068
74	0	0	2066
75	0	0	2066
76	0	0	2062
77	0	0	2065
78	0	0	2063
79	0	0	2059
80	0	0	2060
81	0	0	2064
82	0	0	2072
83	0	0	2069
84	0	0	2067
85	0	0	2061
86	0	0	2068
87	0	0	2067
88	0	0	2064
89	0	0	2065
90	0	0	2066
91	0	0	2063
92	0	0	2058
93	0	0	2061
94	0	0	2066
95	0	0	2064
96	0	0	2063
97	0	0	2067
98	0	0	2062
99	0	0	2067
100	0	0	2066
101	0	0	2066
102	0	0	2064
103	0	0	2064
104	0	0	2062
105	0	0	2065
106	0	0	2063
107	0	0	2062
108	0	0	2068
109	0	0	2069
110	0	0	2068
111	0	0	2059
112	0	0	2062
113	0	0	2065
114	0	0	2067
115	0	0	2065
116	0	0	2063
117	0	0	2065
118	0	0	2066
119	0	0	2058
120	0	0	2063
121	0	0	2062
122	0	0	2068
123	0	0	2064
124	0	0	2061
125	0	0	2067
126	0	0	2065
127	0	0	2063
0	0	0	2069
1	0	0	2072
2	0	0	2067
3	0	0	2067
4	0	0	2063
5	0	0	2063
6	0	0	2062
7	0	0	2064
8	0	0	2064
9	0	0	2065
10	0	0	2065
11	0	0	2068
12	0	0	2067
13	0	0	2065
14	0	0	2064
15	0	0	2063
16	0	0	2066
17	0	0	2068
18	0	0	2065
19	0	0	2069
20	0	0	2070
21	0	0	2070
22	0	0	2060
23	0	0	2064
24	0	0	2061
25	0	0	2062
26	0	0	2067
27	0	0	2056
28	0	0	2060
29	0	0	2061
30	0	0	2069
31	0	0	2072
32	0	0	2067
33	0	0	2065
34	0	0	2066
35	0	0	2067
36	0	0	2070
37	0	0	2065
38	0	0	2060
39	0	0	2074
40	0	0	2073
41	0	0	2071
42	0	0	2061
43	0	0	2066
44	0	0	2065
45	0	0	2063
46	0	0	2065
47	0	0	2070
48	0	0	2070
49	0	0	2068
50	0	0	2061
51	0	0	2060
52	0	0	2064
53	0	0	2063
54	0	0	2056
55	0	0	2058
56	0	0	2055
57	0	0	2061
58	0	0	2075
59	0	0	2078
60	0	0	2071
61	0	0	2069
62	0	0	2069
63	0	0	2068
64	0	0	2063
65	0	0	2063
66	0	0	2067
67	0	0	2060
68	0	0	2065
69	0	0	2065
70	0	0	2063
71	0	0	2061
72	0	0	2060
73	0	0	2064
74	0	0	2066
75	0	0	2070
76	0	0	2073
77	0	0	2073
78	0	0	2064
79	0	0	2058
80	0	0	2059
81	0	0	2065
82	0	0	2071
83	0	0	2072
84	0	0	2070
85	0	0	2067
86	0	0	2067
87	0	0	2058
88	0	0	2049
89	0	0	2053
90	0	0	2053
91	0	0	2060
92	0	0	2060
93	0	0	2069
94	0	0	2067
95	0	0	2067
96	0	0	2068
97	0	0	2075
98	0	0	2071
99	0	0	2071
100	0	0	2067
101	0	0	2067
102	0	0	2062
103	0	0	2068
104	0	0	2071
105	0	0	2066
106	0	0	2068
107	0	0	2056
108	0	0	2059
109	0	0	2065
110	0	0	2072
111	0	0	2074
112	0	0	2064
113	0	0	2056
114	0	0	2056
115	0	0	2056
116	0	0	2067
117	0	0	2058
118	0	0	2066
119	0	0	2062
120	0	0	2059
121	0	0	2060
122	0	0	2073
123	0	0	2075
124	0	0	2076
125	0	0	2074
126	0	0	2074
127	0	0	2071
0	0	0	2063
1	0	0	2058
2	0	0	2054
3	0	0	2053
4	0	0	2061
5	0	0	2075
6	0	0	2069
7	0	0	2069
8	0	0	2067
9	0	0	2066
10	0	0	2067
11	0	0	2075
12	0	0	2066
13	0	0	2072
14	0	0	2069
15	0	0	2067
16	0	0	2062
17	0	0	2068
18	0	0	2060
19	0	0	2068
20	0	0	2067
21	0	0	2066
22	0	0	2064
23	0	0	2067
24	0	0	2066
25	0	0	2065
26	0	0	2066
27	0	0	2061
28	0	0	2065
29	0	0	2068
30	0	0	2070
31	0	0	2069
32	0	0	2072
33	0	0	2067
34	0	0	2064
35	0	0	2065
36	0	0	2062
37	0	0	2061
38	0	0	2068
39	0	0	2063
40	0	0	2063
41	0	0	2062
42	0	0	2061
43	0	0	2067
44	0	0	2065
45	0	0	2068
46	0	0	2063
47	0	0	2065
48	0	0	2063
49	0	0	2063
50	0	0	2068
51	0	0	2066
52	0	0	2070
53	0	0	2066
54	0	0	2066
55	0	0	2069
56	0	0	2070
57	0	0	2065
58	0	0	2064
59	0	0	2064
60	0	0	2060
61	0	0	2070
62	0	0	2068
63	0	0	2060
64	0	0	2070
65	0	0	2067
66	0	0	2064
67	0	0	2062
68	0	0	2065
69	0	0	2068
70	0	0	2063
71	0	0	2071
72	0	0	2071
73	0	0	2070
74	0	0	2072
75	0	0	2069
76	0	0	2064
77	0	0	2067
78	0	0	2070
79	0	0	2063
80	0	0	2060
81	0	0	2059
82	0	0	2059
83	0	0	2056
84	0	0	2059
85	0	0	2067
86	0	0	2076
87	0	0	2069
88	0	0	2058
89	0	0	2074
90	0	0	2070
91	0	0	2066
92	0	0	2055
93	0	0	2056
94	0	0	2067
95	0	0	2055
96	0	0	2065
97	0	0	2065
98	0	0	2072
99	0	0	2076
100	0	0	2074
101	0	0	2067
102	0	0	2065
103	0	0	2068
104	0	0	2074
105	0	0	2071
106	0	0	2066
107	0	0	2067
108	0	0	2065
109	0	0	2060
110	0	0	2063
111	0	0	2062
112	0	0	2064
113	0	0	2072
114	0	0	2083
115	0	0	2078
116	0	0	2071
117	0	0	2063
118	0	0	2057
119	0	0	2060
120	0	0	2052
121	0	0	2051
122	0	0	2048
123	0	0	2052
124	0	0	2056
125	0	0	2063
126	0	0	2063
127	0	0	2068
0	0	0	2074
1	0	0	2079
2	0	0	2079
3	0	0	2073
4	0	0	2072
5	0	0	2070
6	0	0	2065
7	0	0	2067
8	0	0	2064
9	0	0	2065
10	0	0	2065
11	0	0	2067
12	0	0	2066
13	0	0	2064
14	0	0	2062
15	0	0	2067
16	0	0	2064
17	0	0	2062
18	0	0	2064
19	0	0	2065
20	0	0	2066
21	0	0	2065
22	0	0	2066
23	0	0	2066
24	0	0	2067
25	0	0	2066
26	0	0	2062
27	0	0	2064
28	0	0	2063
29	0	0	2063
30	0	0	2064
31	0	0	2067
32	0	0	2067
33	0	0	2065
34	0	0	2064
35	0	0	2072
36	0	0	2067
37	0	0	2064
38	0	0	2065
39	0	0	2064
40	0	0	2060
41	0	0	2068
42	0	0	2063
43	0	0	2066
44	0	0	2066
45	0	0	2067
46	0	0	2062
47	0	0	2066
48	0	0	2062
49	0	0	2066
50	0	0	2067
51	0	0	2060
52	0	0	2066
53	0	0	2062
54	0	0	2063
55	0	0	2066
56	0	0	2069
57	0	0	2065
58	0	0	2070
59	0	0	2065
60	0	0	2067
61	0	0	2078
62	0	0	2073
63	0	0	2068
64	0	0	2065
65	0	0	2061
66	0	0	2059
67	0	0	2059
68	0	0	2058
69	0	0	2065
70	0	0	2066
71	0	0	2065
72	0	0	2066
73	0	0	2067
74	0	0	2063
75	0	0	2064
76	0	0	2070
77	0	0	2074
78	0	0	2075
79	0	0	2072
80	0	0	2070
81	0	0	2065
82	0	0	2056
83	0	0	2051
84	0	0	2054
85	0	0	2058
86	0	0	2058
87	0	0	2070
88	0	0	2071
89	0	0	2070
90	0	0	2068
91	0	0	2063
92	0	0	2069
93	0	0	2064
94	0	0	2067
95	0	0	2063
96	0	0	2067
97	0	0	2075
98	0	0	2071
99	0	0	2070
100	0	0	2071
101	0	0	2074
102	0	0	2069
103	0	0	2067
104	0	0	2061
105	0	0	2062
106	0	0	2063
107	0	0	2053
108	0	0	2059
109	0	0	2058
110	0	0	2056
111	0	0	2071
112	0	0	2071
113	0	0	2080
114	0	0	2078
115	0	0	2065
116	0	0	2057
117	0	0	2059
118	0	0	2052
119	0	0	2053
120	0	0	2060
121	0	0	2064
122	0	0	2065
123	0	0	2072
124	0	0	2066
125	0	0	2074
126	0	0	2073
127	0	0	2071
0	0	0	2069
1	0	0	2064
2	0	0	2065
3	0	0	2065
4	0	0	2066
5	0	0	2059
6	0	0	2064
7	0	0	2068
8	0	0	2065
9	0	0	2070
10	0	0	2064
11	0	0	2066
12	0	0	2066
13	0	0	2064
14	0	0	2063
15	0	0	2063
16	0	0	2065
17	0	0	2064
18	0	0	2063
19	0	0	2062
20	0	0	2065
21	0	0	2067
22	0	0	2069
23	0	0	2067
24	0	0	2071
25	0	0	2066
26	0	0	2065
27	0	0	2066
28	0	0	2058
29	0	0	2060
30	0	0	2064
31	0	0	2062
32	0	0	2065
33	0	0	2058
34	0	0	2064
35	0	0	2068
36	0	0	2065
37	0	0	2066
38	0	0	2064
39	0	0	2075
40	0	0	2069
41	0	0	2066
42	0	0	2068
43	0	0	2068
44	0	0	2063
45	0	0	2059
46	0	0	2068
47	0	0	2067
48	0	0	2063
49	0	0	2067
50	0	0	2064
51	0	0	2063
52	0	0	2059
53	0	0	2058
54	0	0	2062
55	0	0	2064
56	0	0	2079
57	0	0	2075
58	0	0	2069
59	0	0	2066
60	0	0	2058
61	0	0	2060
62	0	0	2049
63	0	0	2042
64	0	0	2046
65	0	0	2055
66	0	0	2060
67	0	0	2071
68	0	0	2071
69	0	0	2081
70	0	0	2082
71	0	0	2086
72	0	0	2076
73	0	0	2069
74	0	0	2070
75	0	0	2071
76	0	0	2063
77	0	0	2060
78	0	0	2049
79	0	0	2050
80	0	0	2055
81	0	0	2061
82	0	0	2065
83	0	0	2065
84	0	0	2066
85	0	0	2071
86	0	0	2071
87	0	0	2074
88	0	0	2066
89	0	0	2060
90	0	0	2058
91	0	0	2061
92	0	0	2053
93	0	0	2068
94	0	0	2066
95	0	0	2072
96	0	0	2074
97	0	0	2072
98	0	0	2067
99	0	0	2073
100	0	0	2071
101	0	0	2072
102	0	0	2067
103	0	0	2062
104	0	0	2062
105	0	0	2067
106	0	0	2070
107	0	0	2066
108	0	0	2072
109	0	0	2069
110	0	0	2070
111	0	0	2069
112	0	0	2064
113	0	0	2057
114	0	0	2052
115	0	0	2049
116	0	0	2042
117	0	0	2041
118	0	0	2057
119	0	0	2076
120	0	0	2062
121	0	0	2072
122	0	0	2083
123	0	0	2081
124	0	0	2078
125	0	0	2067
126	0	0	2083
127	0	0	2085
0	0	0	2081
1	0	0	2069
2	0	0	2065
3	0	0	2060
4	0	0	2057
5	0	0	2049
6	0	0	2045
7	0	0	2054
8	0	0	2055
9	0	0	2054
10	0	0	2074
11	0	0	2079
12	0	0	2079
13	0	0	2076
14	0	0	2074
15	0	0	2064
16	0	0	2064
17	0	0	2067
18	0	0	2065
19	0	0	2062
20	0	0	2058
21	0	0	2064
22	0	0	2065
23	0	0	2063
24	0	0	2060
25	0	0	2066
26	0	0	2072
27	0	0	2065
28	0	0	2065
29	0	0	2060
30	0	0	2059
31	0	0	2065
32	0	0	2069
33	0	0	2066
34	0	0	2074
35	0	0	2080
36	0	0	2068
37	0	0	2072
38	0	0	2070
39	0	0	2065
40	0	0	2062
41	0	0	2046
42	0	0	2034
43	0	0	2041
44	0	0	2046
45	0	0	2059
46	0	0	2078
47	0	0	2072
48	0	0	2077
49	0	0	2086
50	0	0	2073
51	0	0	2072
52	0	0	2069
53	0	0	2070
54	0	0	2069
55	0	0	2063
56	0	0	2062
57	0	0	2062
58	0	0	2055
59	0	0	2060
60	0	0	2054
61	0	0	2073
62	0	0	2067
63	0	0	2059
64	0	0	2065
65	0	0	2064
66	0	0	2068
67	0	0	2072
68	0	0	2067
69	0	0	2076
70	0	0	2075
71	0	0	2074
72	0	0	2062
73	0	0	2056
74	0	0	2072
75	0	0	2072
76	0	0	2076
77	0	0	2060
78	0	0	2054
79	0	0	2063
80	0	0	2057
81	0	0	2061
82	0	0	2052
83	0	0	2049
84	0	0	2069
85	0	0	2068
86	0	0	2066
87	0	0	2076
88	0	0	2080
89	0	0	2069
90	0	0	2076
91	0	0	2073
92	0	0	2075
93	0	0	2080
94	0	0	2080
95	0	0	2081
96	0	0	2071
97	0	0	2057
98	0	0	2045
99	0	0	2038
100	0	0	2040
101	0	0	2043
102	0	0	2048
103	0	0	2076
104	0	0	2084
105	0	0	2082
106	0	0	2069
107	0	0	2063
108	0	0	2057
109	0	0	2065
110	0	0	2058
111	0	0	2068
112	0	0	2070
113	0	0	2064
114	0	0	2064
115	0	0	2077
116	0	0	2087
117	0	0	2082
118	0	0	2069
119	0	0	2060
120	0	0	2060
121	0	0	2050
122	0	0	2048
123	0	0	2053
124	0	0	2067
125	0	0	2069
126	0	0	2078
127	0	0	2081
0	0	0	2089
1	0	0	2075
2	0	0	2072
3	0	0	2071
4	0	0	2060
5	0	0	2063
6	0	0	2056
7	0	0	2051
8	0	0	2062
9	0	0	2053
10	0	0	2064
11	0	0	2056
12	0	0	2051
13	0	0	2054
14	0	0	2061
15	0	0	2072
16	0	0	2069
17	0	0	2060
18	0	0	2072
19	0	0	2089
20	0	0	2084
21	0	0	2073
22	0	0	2065
23	0	0	2066
24	0	0	2071
25	0	0	2078
26	0	0	2093
27	0	0	2072
28	0	0	2058
29	0	0	2064
30	0	0	2056
31	0	0	2035
32	0	0	2030
33	0	0	2048
34	0	0	2050
35	0	0	2060
36	0	0	2093
37	0	0	2089
38	0	0	2070
39	0	0	2052
40	0	0	2062
41	0	0	2084
42	0	0	2094
43	0	0	2072
44	0	0	2069
45	0	0	2069
46	0	0	2079
47	0	0	2071
48	0	0	2049
49	0	0	2052
50	0	0	2034
51	0	0	2062
52	0	0	2068
53	0	0	2060
54	0	0	2058
55	0	0	2059
56	0	0	2065
57	0	0	2087
58	0	0	2070
59	0	0	2076
60	0	0	2075
61	0	0	2069
62	0	0	2073
63	0	0	2069
64	0	0	2065
65	0	0	2056
66	0	0	2059
67	0	0	2086
68	0	0	2079
69	0	0	2092
70	0	0	2073
71	0	0	2051
72	0	0	2033
73	0	0	2041
74	0	0	2046
75	0	0	2062
76	0	0	2046
77	0	0	2062
78	0	0	2078
79	0	0	2069
80	0	0	2081
81	0	0	2089
82	0	0	2075
83	0	0	2063
84	0	0	2072
85	0	0	2056
86	0	0	2056
87	0	0	2067
88	0	0	2068
89	0	0	2074
90	0	0	2083
91	0	0	2053
92	0	0	2037
93	0	0	2056
94	0	0	2068
95	0	0	2087
96	0	0	2072
97	0	0	2064
98	0	0	2068
99	0	0	2055
100	0	0	2054
101	0	0	2042
102	0	0	2057
103	0	0	2084
104	0	0	2090
105	0	0	2082
106	0	0	2068
107	0	0	2062
108	0	0	2066
109	0	0	2058
110	0	0	2071
111	0	0	2062
112	0	0	2057
113	0	0	2079
114	0	0	2070
115	0	0	2079
116	0	0	2043
117	0	0	2058
118	0	0	2063
119	0	0	2058
120	0	0	2070
121	0	0	2071
122	0	0	2069
123	0	0	2068
124	0	0	2076
125	0	0	2067
126	0	0	2048
127	0	0	2058
0	0	0	2060
1	0	0	2080
2	0	0	2067
3	0	0	2064
4	0	0	2081
5	0	0	2078
6	0	0	2083
7	0	0	2076
8	0	0	2068
9	0	0	2052
10	0	0	2029
11	0	0	2046
12	0	0	2068
13	0	0	2076
14	0	0	2052
15	0	0	2034
16	0	0	2054
17	0	0	2068
18	0	0	2076
19	0	0	2075
20	0	0	2075
21	0	0	2077
22	0	0	2077
23	0	0	2074
24	0	0	2067
25	0	0	2065
26	0	0	2063
27	0	0	2074
28	0	0	2070
29	0	0	2070
30	0	0	2074
31	0	0	2069
32	0	0	2046
33	0	0	2048
34	0	0	2071
35	0	0	2082
36	0	0	2053
37	0	0	2051
38	0	0	2068
39	0	0	2061
40	0	0	2060
41	0	0	2075
42	0	0	2060
43	0	0	2071
44	0	0	2068
45	0	0	2063
46	0	0	2078
47	0	0	2073
48	0	0	2075
49	0	0	2063
50	0	0	2070
51	0	0	2068
52	0	0	2067
53	0	0	2049
54	0	0	2039
55	0	0	2062
56	0	0	2062
57	0	0	2061
58	0	0	2087
59	0	0	2081
60	0	0	2071
61	0	0	2071
62	0	0	2067
63	0	0	2056
64	0	0	2042
65	0	0	2080
66	0	0	2073
67	0	0	2063
68	0	0	2055
69	0	0	2048
70	0	0	2058
71	0	0	2062
72	0	0	2075
73	0	0	2077
74	0	0	2069
75	0	0	2057
76	0	0	2083
77	0	0	2065
78	0	0	2044
79	0	0	2068
80	0	0	2064
81	0	0	2056
82	0	0	2054
83	0	0	2069
84	0	0	2076
85	0	0	2064
86	0	0	2072
87	0	0	2080
88	0	0	2074
89	0	0	2054
90	0	0	2063
91	0	0	2069
92	0	0	2067
93	0	0	2072
94	0	0	2065
95	0	0	2061
96	0	0	2064
97	0	0	2064
98	0	0	2073
99	0	0	2063
100	0	0	2062
101	0	0	2077
102	0	0	2064
103	0	0	2056
104	0	0	2058
105	0	0	2055
106	0	0	2056
107	0	0	2079
108	0	0	2076
109	0	0	2072
110	0	0	2076
111	0	0	2099
112	0	0	2074
113	0	0	2030
114	0	0	2041
115	0	0	2052
116	0	0	2073
117	0	0	2069
118	0	0	2031
119	0	0	2081
120	0	0	2114
121	0	0	2088
122	0	0	2051
123	0	0	2031
124	0	0	2040
125	0	0	2034
126	0	0	2055
127	0	0	2071
0	0	0	2053
1	0	0	2114
2	0	0	2100
3	0	0	2087
4	0	0	2067
5	0	0	2037
6	0	0	2025
7	0	0	2077
8	0	0	2085
9	0	0	2075
10	0	0	2085
11	0	0	2061
12	0	0	2052
13	0	0	2026
14	0	0	2021
15	0	0	2052
16	0	0	2083
17	0	0	2089
18	0	0	2101
19	0	0	2066
20	0	0	2085
21	0	0	2076
22	0	0	2057
23	0	0	2061
24	0	0	2030
25	0	0	2069
26	0	0	2077
27	0	0	2041
28	0	0	2038
