# bioPlux Text File Format
# Version: 1
# StartDateTime: 2018-08-23 11:24:35
# SamplingFrequency: 1000
# SampledChannels: 5
# SamplingResolution: 12
# AcquiringDevice: 00:07:80:40:DD:D2
# EndOfHeader
0	0	0	2036
1	0	0	2055
2	0	0	2067
3	0	0	2086
4	0	0	2085
5	0	0	2089
6	0	0	2087
7	0	0	2092
8	0	0	2090
9	0	0	2088
10	0	0	2083
11	0	0	2073
12	0	0	2065
13	0	0	2072
14	0	0	2066
15	0	0	2088
16	0	0	2086
17	0	0	2054
18	0	0	2039
19	0	0	2030
20	0	0	2024
21	0	0	2025
22	0	0	2055
23	0	0	2059
24	0	0	2057
25	0	0	2079
26	0	0	2077
27	0	0	2077
28	0	0	2077
29	0	0	2076
30	0	0	2074
31	0	0	2071
32	0	0	2077
33	0	0	2087
34	0	0	2079
35	0	0	2064
36	0	0	2064
37	0	0	2048
38	0	0	2029
39	0	0	2019
40	0	0	2016
41	0	0	2021
42	0	0	2045
43	0	0	2058
44	0	0	2079
45	0	0	2099
46	0	0	2123
47	0	0	2116
48	0	0	2103
49	0	0	2117
50	0	0	2134
51	0	0	2100
52	0	0	2078
53	0	0	2043
54	0	0	2014
55	0	0	2002
56	0	0	2012
57	0	0	2022
58	0	0	2038
59	0	0	2050
60	0	0	2041
61	0	0	2050
62	0	0	2066
63	0	0	2059
64	0	0	2045
65	0	0	2036
66	0	0	2051
67	0	0	2074
68	0	0	2087
69	0	0	2099
70	0	0	2108
71	0	0	2106
72	0	0	2101
73	0	0	2109
74	0	0	2123
75	0	0	2102
76	0	0	2074
77	0	0	2064
78	0	0	2040
79	0	0	2020
80	0	0	2016
81	0	0	2023
82	0	0	2042
83	0	0	2057
84	0	0	2074
85	0	0	2086
86	0	0	2094
87	0	0	2077
88	0	0	2056
89	0	0	2054
90	0	0	2064
91	0	0	2063
92	0	0	2062
93	0	0	2066
94	0	0	2067
95	0	0	2061
96	0	0	2072
97	0	0	2072
98	0	0	2060
99	0	0	2055
100	0	0	2061
101	0	0	2060
102	0	0	2058
103	0	0	2069
104	0	0	2067
105	0	0	2075
106	0	0	2079
107	0	0	2089
108	0	0	2096
109	0	0	2088
110	0	0	2076
111	0	0	2068
112	0	0	2060
113	0	0	2054
114	0	0	2048
115	0	0	2043
116	0	0	2039
117	0	0	2045
118	0	0	2046
119	0	0	2048
120	0	0	2057
121	0	0	2071
122	0	0	2072
123	0	0	2073
124	0	0	2075
125	0	0	2085
126	0	0	2080
127	0	0	2086
0	0	0	2084
1	0	0	2089
2	0	0	2078
3	0	0	2079
4	0	0	2071
5	0	0	2059
6	0	0	2054
7	0	0	2053
8	0	0	2064
9	0	0	2065
10	0	0	2085
11	0	0	2077
12	0	0	2059
13	0	0	2044
14	0	0	2032
15	0	0	2028
16	0	0	2042
17	0	0	2033
18	0	0	2021
19	0	0	2028
20	0	0	2048
21	0	0	2080
22	0	0	2086
23	0	0	2085
24	0	0	2089
25	0	0	2095
26	0	0	2093
27	0	0	2089
28	0	0	2093
29	0	0	2083
30	0	0	2072
31	0	0	2070
32	0	0	2069
33	0	0	2064
34	0	0	2049
35	0	0	2052
36	0	0	2048
37	0	0	2043
38	0	0	2042
39	0	0	2044
40	0	0	2066
41	0	0	2079
42	0	0	2085
43	0	0	2077
44	0	0	2085
45	0	0	2073
46	0	0	2065
47	0	0	2075
48	0	0	2065
49	0	0	2060
50	0	0	2057
51	0	0	2058
52	0	0	2054
53	0	0	2069
54	0	0	2074
55	0	0	2074
56	0	0	2094
57	0	0	2088
58	0	0	2088
59	0	0	2089
60	0	0	2074
61	0	0	2054
62	0	0	2034
63	0	0	2026
64	0	0	2023
65	0	0	2035
66	0	0	2056
67	0	0	2062
68	0	0	2068
69	0	0	2074
70	0	0	2074
71	0	0	2061
72	0	0	2065
73	0	0	2068
74	0	0	2072
75	0	0	2077
76	0	0	2080
77	0	0	2080
78	0	0	2070
79	0	0	2070
80	0	0	2084
81	0	0	2091
82	0	0	2086
83	0	0	2078
84	0	0	2068
85	0	0	2058
86	0	0	2042
87	0	0	2029
88	0	0	2035
89	0	0	2040
90	0	0	2025
91	0	0	2032
92	0	0	2058
93	0	0	2076
94	0	0	2114
95	0	0	2107
96	0	0	2082
97	0	0	2071
98	0	0	2060
99	0	0	2044
100	0	0	2043
101	0	0	2062
102	0	0	2068
103	0	0	2079
104	0	0	2079
105	0	0	2083
106	0	0	2077
107	0	0	2071
108	0	0	2065
109	0	0	2063
110	0	0	2067
111	0	0	2066
112	0	0	2064
113	0	0	2061
114	0	0	2062
115	0	0	2059
116	0	0	2059
117	0	0	2056
118	0	0	2053
119	0	0	2072
120	0	0	2080
121	0	0	2068
122	0	0	2067
123	0	0	2092
124	0	0	2070
125	0	0	2062
126	0	0	2061
127	0	0	2062
0	0	0	2059
1	0	0	2054
2	0	0	2042
3	0	0	2032
4	0	0	2034
5	0	0	2039
6	0	0	2048
7	0	0	2057
8	0	0	2061
9	0	0	2076
10	0	0	2083
11	0	0	2084
12	0	0	2089
13	0	0	2098
14	0	0	2085
15	0	0	2079
16	0	0	2070
17	0	0	2064
18	0	0	2056
19	0	0	2048
20	0	0	2056
21	0	0	2059
22	0	0	2075
23	0	0	2074
24	0	0	2081
25	0	0	2099
26	0	0	2107
27	0	0	2115
28	0	0	2087
29	0	0	2063
30	0	0	2053
31	0	0	2028
32	0	0	2007
33	0	0	2001
34	0	0	1997
35	0	0	2014
36	0	0	2042
37	0	0	2068
38	0	0	2067
39	0	0	2088
40	0	0	2093
41	0	0	2107
42	0	0	2123
43	0	0	2111
44	0	0	2083
45	0	0	2069
46	0	0	2048
47	0	0	2038
48	0	0	2038
49	0	0	2049
50	0	0	2062
51	0	0	2063
52	0	0	2066
53	0	0	2066
54	0	0	2072
55	0	0	2063
56	0	0	2073
57	0	0	2073
58	0	0	2066
59	0	0	2055
60	0	0	2052
61	0	0	2048
62	0	0	2054
63	0	0	2056
64	0	0	2054
65	0	0	2052
66	0	0	2071
67	0	0	2083
68	0	0	2078
69	0	0	2079
70	0	0	2086
71	0	0	2083
72	0	0	2074
73	0	0	2079
74	0	0	2076
75	0	0	2063
76	0	0	2059
77	0	0	2060
78	0	0	2054
79	0	0	2049
80	0	0	2042
81	0	0	2049
82	0	0	2062
83	0	0	2074
84	0	0	2076
85	0	0	2072
86	0	0	2063
87	0	0	2063
88	0	0	2081
89	0	0	2078
90	0	0	2078
91	0	0	2069
92	0	0	2064
93	0	0	2070
94	0	0	2077
95	0	0	2070
96	0	0	2070
97	0	0	2072
98	0	0	2068
99	0	0	2054
100	0	0	2044
101	0	0	2055
102	0	0	2064
103	0	0	2074
104	0	0	2068
105	0	0	2057
106	0	0	2064
107	0	0	2078
108	0	0	2091
109	0	0	2096
110	0	0	2076
111	0	0	2054
112	0	0	2036
113	0	0	2014
114	0	0	2001
115	0	0	1990
116	0	0	1989
117	0	0	2024
118	0	0	2067
119	0	0	2108
120	0	0	2147
121	0	0	2182
122	0	0	2142
123	0	0	2103
124	0	0	2061
125	0	0	2031
126	0	0	2010
127	0	0	2005
0	0	0	2008
1	0	0	2026
2	0	0	2051
3	0	0	2066
4	0	0	2074
5	0	0	2083
6	0	0	2097
7	0	0	2091
8	0	0	2081
9	0	0	2066
10	0	0	2062
11	0	0	2064
12	0	0	2063
13	0	0	2076
14	0	0	2099
15	0	0	2110
16	0	0	2102
17	0	0	2088
18	0	0	2072
19	0	0	2051
20	0	0	2025
21	0	0	2014
22	0	0	2025
23	0	0	2045
24	0	0	2061
25	0	0	2070
26	0	0	2072
27	0	0	2079
28	0	0	2088
29	0	0	2075
30	0	0	2072
31	0	0	2075
32	0	0	2073
33	0	0	2100
34	0	0	2097
35	0	0	2074
36	0	0	2061
37	0	0	2063
38	0	0	2052
39	0	0	2035
40	0	0	2021
41	0	0	2023
42	0	0	2023
43	0	0	2028
44	0	0	2048
45	0	0	2053
46	0	0	2057
47	0	0	2061
48	0	0	2081
49	0	0	2088
50	0	0	2106
51	0	0	2105
52	0	0	2106
53	0	0	2095
54	0	0	2097
55	0	0	2084
56	0	0	2064
57	0	0	2052
58	0	0	2044
59	0	0	2048
60	0	0	2045
61	0	0	2048
62	0	0	2055
63	0	0	2066
64	0	0	2061
65	0	0	2061
66	0	0	2064
67	0	0	2059
68	0	0	2083
69	0	0	2101
70	0	0	2087
71	0	0	2071
72	0	0	2064
73	0	0	2054
74	0	0	2034
75	0	0	2036
76	0	0	2036
77	0	0	2034
78	0	0	2038
79	0	0	2055
80	0	0	2059
81	0	0	2071
82	0	0	2079
83	0	0	2086
84	0	0	2090
85	0	0	2081
86	0	0	2075
87	0	0	2071
88	0	0	2080
89	0	0	2086
90	0	0	2077
91	0	0	2076
92	0	0	2074
93	0	0	2068
94	0	0	2059
95	0	0	2057
96	0	0	2063
97	0	0	2074
98	0	0	2071
99	0	0	2066
100	0	0	2064
101	0	0	2091
102	0	0	2076
103	0	0	2053
104	0	0	2072
105	0	0	2060
106	0	0	2046
107	0	0	2048
108	0	0	2055
109	0	0	2032
110	0	0	2031
111	0	0	2020
112	0	0	2018
113	0	0	2017
114	0	0	2036
115	0	0	2053
116	0	0	2079
117	0	0	2098
118	0	0	2091
119	0	0	2085
120	0	0	2088
121	0	0	2109
122	0	0	2108
123	0	0	2097
124	0	0	2110
125	0	0	2109
126	0	0	2094
127	0	0	2082
0	0	0	2072
1	0	0	2055
2	0	0	2038
3	0	0	2033
4	0	0	2027
5	0	0	2029
6	0	0	2032
7	0	0	2039
8	0	0	2068
9	0	0	2061
10	0	0	2072
11	0	0	2068
12	0	0	2058
13	0	0	2055
14	0	0	2054
15	0	0	2067
16	0	0	2078
17	0	0	2086
18	0	0	2086
19	0	0	2077
20	0	0	2074
21	0	0	2070
22	0	0	2078
23	0	0	2077
24	0	0	2076
25	0	0	2078
26	0	0	2063
27	0	0	2050
28	0	0	2043
29	0	0	2048
30	0	0	2057
31	0	0	2066
32	0	0	2070
33	0	0	2078
34	0	0	2074
35	0	0	2082
36	0	0	2081
37	0	0	2102
38	0	0	2096
39	0	0	2070
40	0	0	2056
41	0	0	2051
42	0	0	2022
43	0	0	2007
44	0	0	2011
45	0	0	2013
46	0	0	2043
47	0	0	2063
48	0	0	2077
49	0	0	2082
50	0	0	2093
51	0	0	2087
52	0	0	2078
53	0	0	2073
54	0	0	2071
55	0	0	2086
56	0	0	2106
57	0	0	2112
58	0	0	2099
59	0	0	2084
60	0	0	2060
61	0	0	2034
62	0	0	2025
63	0	0	2035
64	0	0	2036
65	0	0	2045
66	0	0	2046
67	0	0	2053
68	0	0	2057
69	0	0	2053
70	0	0	2057
71	0	0	2062
72	0	0	2081
73	0	0	2097
74	0	0	2097
75	0	0	2099
76	0	0	2090
77	0	0	2078
78	0	0	2072
79	0	0	2051
80	0	0	2039
81	0	0	2035
82	0	0	2042
83	0	0	2042
84	0	0	2046
85	0	0	2057
86	0	0	2074
87	0	0	2069
88	0	0	2072
89	0	0	2081
90	0	0	2091
91	0	0	2092
92	0	0	2096
93	0	0	2107
94	0	0	2110
95	0	0	2119
96	0	0	2116
97	0	0	2085
98	0	0	2044
99	0	0	2017
100	0	0	1991
101	0	0	1973
102	0	0	1978
103	0	0	2001
104	0	0	2028
105	0	0	2054
106	0	0	2074
107	0	0	2086
108	0	0	2099
109	0	0	2087
110	0	0	2083
111	0	0	2088
112	0	0	2099
113	0	0	2097
114	0	0	2091
115	0	0	2085
116	0	0	2072
117	0	0	2070
118	0	0	2069
119	0	0	2068
120	0	0	2068
121	0	0	2074
122	0	0	2076
123	0	0	2069
124	0	0	2076
125	0	0	2068
126	0	0	2065
127	0	0	2072
0	0	0	2065
1	0	0	2053
2	0	0	2048
3	0	0	2057
4	0	0	2055
5	0	0	2049
6	0	0	2049
7	0	0	2057
8	0	0	2060
9	0	0	2053
10	0	0	2057
11	0	0	2070
12	0	0	2069
13	0	0	2057
14	0	0	2044
15	0	0	2051
16	0	0	2076
17	0	0	2109
18	0	0	2106
19	0	0	2114
20	0	0	2104
21	0	0	2085
22	0	0	2053
23	0	0	2022
24	0	0	1997
25	0	0	2003
26	0	0	2016
27	0	0	2015
28	0	0	2037
29	0	0	2062
30	0	0	2086
31	0	0	2103
32	0	0	2107
33	0	0	2110
34	0	0	2144
35	0	0	2133
36	0	0	2087
37	0	0	2057
38	0	0	2031
39	0	0	2009
40	0	0	2000
41	0	0	1999
42	0	0	2018
43	0	0	2059
44	0	0	2085
45	0	0	2091
46	0	0	2098
47	0	0	2096
48	0	0	2073
49	0	0	2065
50	0	0	2075
51	0	0	2075
52	0	0	2079
53	0	0	2086
54	0	0	2078
55	0	0	2070
56	0	0	2069
57	0	0	2063
58	0	0	2060
59	0	0	2064
60	0	0	2055
61	0	0	2060
62	0	0	2067
63	0	0	2065
64	0	0	2060
65	0	0	2068
66	0	0	2057
67	0	0	2076
68	0	0	2085
69	0	0	2079
70	0	0	2073
71	0	0	2069
72	0	0	2072
73	0	0	2071
74	0	0	2066
75	0	0	2059
76	0	0	2053
77	0	0	2054
78	0	0	2057
79	0	0	2070
80	0	0	2073
81	0	0	2064
82	0	0	2046
83	0	0	2056
84	0	0	2073
85	0	0	2084
86	0	0	2076
87	0	0	2068
88	0	0	2057
89	0	0	2047
90	0	0	2028
91	0	0	2019
92	0	0	2024
93	0	0	2035
94	0	0	2053
95	0	0	2092
96	0	0	2119
97	0	0	2117
98	0	0	2101
99	0	0	2080
100	0	0	2066
101	0	0	2052
102	0	0	2037
103	0	0	2026
104	0	0	2032
105	0	0	2048
106	0	0	2067
107	0	0	2077
108	0	0	2087
109	0	0	2089
110	0	0	2084
111	0	0	2074
112	0	0	2068
113	0	0	2062
114	0	0	2062
115	0	0	2062
116	0	0	2066
117	0	0	2099
118	0	0	2115
119	0	0	2093
120	0	0	2073
121	0	0	2071
122	0	0	2057
123	0	0	2042
124	0	0	2044
125	0	0	2045
126	0	0	2054
127	0	0	2062
0	0	0	2045
1	0	0	2037
2	0	0	2039
3	0	0	2042
4	0	0	2043
5	0	0	2041
6	0	0	2045
7	0	0	2035
8	0	0	2057
9	0	0	2077
10	0	0	2090
11	0	0	2077
12	0	0	2070
13	0	0	2083
14	0	0	2087
15	0	0	2094
16	0	0	2101
17	0	0	2085
18	0	0	2081
19	0	0	2075
20	0	0	2064
21	0	0	2062
22	0	0	2067
23	0	0	2065
24	0	0	2067
25	0	0	2074
26	0	0	2082
27	0	0	2080
28	0	0	2085
29	0	0	2070
30	0	0	2081
31	0	0	2075
32	0	0	2079
33	0	0	2054
34	0	0	2033
35	0	0	2031
36	0	0	2019
37	0	0	2020
38	0	0	2046
39	0	0	2064
40	0	0	2078
41	0	0	2079
42	0	0	2080
43	0	0	2066
44	0	0	2053
45	0	0	2043
46	0	0	2051
47	0	0	2056
48	0	0	2074
49	0	0	2079
50	0	0	2085
51	0	0	2076
52	0	0	2078
53	0	0	2063
54	0	0	2059
55	0	0	2060
56	0	0	2048
57	0	0	2048
58	0	0	2061
59	0	0	2083
60	0	0	2094
61	0	0	2098
62	0	0	2097
63	0	0	2088
64	0	0	2096
65	0	0	2074
66	0	0	2071
67	0	0	2069
68	0	0	2046
69	0	0	2034
70	0	0	2033
71	0	0	2029
72	0	0	2028
73	0	0	2039
74	0	0	2043
75	0	0	2053
76	0	0	2082
77	0	0	2091
78	0	0	2085
79	0	0	2084
80	0	0	2070
81	0	0	2070
82	0	0	2068
83	0	0	2052
84	0	0	2064
85	0	0	2062
86	0	0	2067
87	0	0	2068
88	0	0	2064
89	0	0	2076
90	0	0	2074
91	0	0	2066
92	0	0	2063
93	0	0	2058
94	0	0	2061
95	0	0	2071
96	0	0	2071
97	0	0	2084
98	0	0	2083
99	0	0	2106
100	0	0	2101
101	0	0	2085
102	0	0	2069
103	0	0	2048
104	0	0	2029
105	0	0	2024
106	0	0	2019
107	0	0	2048
108	0	0	2069
109	0	0	2074
110	0	0	2081
111	0	0	2072
112	0	0	2061
113	0	0	2036
114	0	0	2025
115	0	0	2027
116	0	0	2038
117	0	0	2050
118	0	0	2071
119	0	0	2086
120	0	0	2099
121	0	0	2098
122	0	0	2103
123	0	0	2096
124	0	0	2086
125	0	0	2071
126	0	0	2054
127	0	0	2048
0	0	0	2035
1	0	0	2032
2	0	0	2033
3	0	0	2042
4	0	0	2060
5	0	0	2071
6	0	0	2074
7	0	0	2100
8	0	0	2100
9	0	0	2099
10	0	0	2098
11	0	0	2091
12	0	0	2077
13	0	0	2070
14	0	0	2054
15	0	0	2044
16	0	0	2038
17	0	0	2036
18	0	0	2048
19	0	0	2054
20	0	0	2062
21	0	0	2069
22	0	0	2065
23	0	0	2057
24	0	0	2068
25	0	0	2099
26	0	0	2096
27	0	0	2076
28	0	0	2062
29	0	0	2058
30	0	0	2073
31	0	0	2063
32	0	0	2057
33	0	0	2105
34	0	0	2101
35	0	0	2086
36	0	0	2072
37	0	0	2053
38	0	0	2010
39	0	0	1998
40	0	0	1991
41	0	0	1992
42	0	0	2026
43	0	0	2055
44	0	0	2079
45	0	0	2094
46	0	0	2100
47	0	0	2094
48	0	0	2068
49	0	0	2072
50	0	0	2070
51	0	0	2086
52	0	0	2087
53	0	0	2099
54	0	0	2091
55	0	0	2085
56	0	0	2076
57	0	0	2054
58	0	0	2055
59	0	0	2060
60	0	0	2061
61	0	0	2064
62	0	0	2061
63	0	0	2059
64	0	0	2066
65	0	0	2069
66	0	0	2074
67	0	0	2072
68	0	0	2083
69	0	0	2077
70	0	0	2083
71	0	0	2076
72	0	0	2070
73	0	0	2057
74	0	0	2052
75	0	0	2042
76	0	0	2037
77	0	0	2039
78	0	0	2041
79	0	0	2052
80	0	0	2064
81	0	0	2070
82	0	0	2073
83	0	0	2077
84	0	0	2072
85	0	0	2066
86	0	0	2065
87	0	0	2072
88	0	0	2076
89	0	0	2073
90	0	0	2072
91	0	0	2068
92	0	0	2070
93	0	0	2062
94	0	0	2064
95	0	0	2064
96	0	0	2064
97	0	0	2066
98	0	0	2077
99	0	0	2082
100	0	0	2070
101	0	0	2076
102	0	0	2067
103	0	0	2060
104	0	0	2058
105	0	0	2056
106	0	0	2055
107	0	0	2043
108	0	0	2046
109	0	0	2056
110	0	0	2058
111	0	0	2061
112	0	0	2064
113	0	0	2068
114	0	0	2080
115	0	0	2080
116	0	0	2061
117	0	0	2058
118	0	0	2081
119	0	0	2088
120	0	0	2086
121	0	0	2070
122	0	0	2048
123	0	0	2035
124	0	0	2031
125	0	0	2030
126	0	0	2042
127	0	0	2065
0	0	0	2079
1	0	0	2084
2	0	0	2070
3	0	0	2082
4	0	0	2078
5	0	0	2076
6	0	0	2069
7	0	0	2056
8	0	0	2048
9	0	0	2035
10	0	0	2048
11	0	0	2064
12	0	0	2057
13	0	0	2061
14	0	0	2078
15	0	0	2087
16	0	0	2088
17	0	0	2081
18	0	0	2083
19	0	0	2076
20	0	0	2073
21	0	0	2077
22	0	0	2074
23	0	0	2069
24	0	0	2067
25	0	0	2073
26	0	0	2071
27	0	0	2079
28	0	0	2103
29	0	0	2100
30	0	0	2089
31	0	0	2076
32	0	0	2058
33	0	0	2039
34	0	0	2025
35	0	0	2011
36	0	0	2005
37	0	0	2001
38	0	0	2017
39	0	0	2039
40	0	0	2056
41	0	0	2069
42	0	0	2088
43	0	0	2095
44	0	0	2086
45	0	0	2080
46	0	0	2079
47	0	0	2087
48	0	0	2080
49	0	0	2071
50	0	0	2065
51	0	0	2063
52	0	0	2061
53	0	0	2060
54	0	0	2060
55	0	0	2060
56	0	0	2066
57	0	0	2069
58	0	0	2072
59	0	0	2070
60	0	0	2073
61	0	0	2071
62	0	0	2078
63	0	0	2078
64	0	0	2071
65	0	0	2067
66	0	0	2065
67	0	0	2066
68	0	0	2061
69	0	0	2064
70	0	0	2068
71	0	0	2068
72	0	0	2060
73	0	0	2067
74	0	0	2065
75	0	0	2079
76	0	0	2080
77	0	0	2060
78	0	0	2058
79	0	0	2047
80	0	0	2037
81	0	0	2034
82	0	0	2037
83	0	0	2043
84	0	0	2056
85	0	0	2069
86	0	0	2080
87	0	0	2092
88	0	0	2111
89	0	0	2124
90	0	0	2110
91	0	0	2086
92	0	0	2065
93	0	0	2046
94	0	0	2042
95	0	0	2069
96	0	0	2070
97	0	0	2064
98	0	0	2051
99	0	0	2024
100	0	0	2013
101	0	0	1996
102	0	0	1997
103	0	0	2011
104	0	0	2031
105	0	0	2070
106	0	0	2099
107	0	0	2107
108	0	0	2120
109	0	0	2110
110	0	0	2091
111	0	0	2077
112	0	0	2082
113	0	0	2094
114	0	0	2106
115	0	0	2101
116	0	0	2096
117	0	0	2080
118	0	0	2053
119	0	0	2020
120	0	0	2008
121	0	0	2007
122	0	0	2008
123	0	0	2020
124	0	0	2042
125	0	0	2067
126	0	0	2084
127	0	0	2083
0	0	0	2064
1	0	0	2081
2	0	0	2096
3	0	0	2103
4	0	0	2090
5	0	0	2085
6	0	0	2079
7	0	0	2077
8	0	0	2085
9	0	0	2081
10	0	0	2073
11	0	0	2071
12	0	0	2065
13	0	0	2078
14	0	0	2081
15	0	0	2083
16	0	0	2090
17	0	0	2060
18	0	0	2038
19	0	0	2030
20	0	0	2021
21	0	0	2015
22	0	0	2025
23	0	0	2031
24	0	0	2052
25	0	0	2057
26	0	0	2073
27	0	0	2062
28	0	0	2062
29	0	0	2058
30	0	0	2072
31	0	0	2070
32	0	0	2068
33	0	0	2062
34	0	0	2054
35	0	0	2072
36	0	0	2088
37	0	0	2086
38	0	0	2090
39	0	0	2082
40	0	0	2080
41	0	0	2079
42	0	0	2070
43	0	0	2067
44	0	0	2062
45	0	0	2062
46	0	0	2063
47	0	0	2056
48	0	0	2059
49	0	0	2072
50	0	0	2062
51	0	0	2049
52	0	0	2055
53	0	0	2068
54	0	0	2068
55	0	0	2083
56	0	0	2077
57	0	0	2070
58	0	0	2051
59	0	0	2040
60	0	0	2043
61	0	0	2039
62	0	0	2038
63	0	0	2056
64	0	0	2062
65	0	0	2063
66	0	0	2081
67	0	0	2088
68	0	0	2075
69	0	0	2074
70	0	0	2077
71	0	0	2073
72	0	0	2072
73	0	0	2071
74	0	0	2084
75	0	0	2093
76	0	0	2100
77	0	0	2106
78	0	0	2111
79	0	0	2091
80	0	0	2066
81	0	0	2032
82	0	0	2007
83	0	0	1993
84	0	0	1993
85	0	0	2003
86	0	0	2031
87	0	0	2051
88	0	0	2083
89	0	0	2093
90	0	0	2094
91	0	0	2086
92	0	0	2067
93	0	0	2074
94	0	0	2069
95	0	0	2069
96	0	0	2064
97	0	0	2074
98	0	0	2067
99	0	0	2064
100	0	0	2056
101	0	0	2074
102	0	0	2078
103	0	0	2066
104	0	0	2069
105	0	0	2072
106	0	0	2088
107	0	0	2087
108	0	0	2094
109	0	0	2081
110	0	0	2072
111	0	0	2076
112	0	0	2062
113	0	0	2052
114	0	0	2044
115	0	0	2033
116	0	0	2045
117	0	0	2048
118	0	0	2058
119	0	0	2075
120	0	0	2090
121	0	0	2083
122	0	0	2049
123	0	0	2042
124	0	0	2056
125	0	0	2043
126	0	0	2030
127	0	0	2026
0	0	0	2016
1	0	0	2025
2	0	0	2050
3	0	0	2059
4	0	0	2081
5	0	0	2093
6	0	0	2099
7	0	0	2096
8	0	0	2120
9	0	0	2118
10	0	0	2095
11	0	0	2081
12	0	0	2061
13	0	0	2065
14	0	0	2065
15	0	0	2062
16	0	0	2064
17	0	0	2069
18	0	0	2078
19	0	0	2075
20	0	0	2068
21	0	0	2063
22	0	0	2049
23	0	0	2040
24	0	0	2052
25	0	0	2050
26	0	0	2044
27	0	0	2054
28	0	0	2066
29	0	0	2071
30	0	0	2071
31	0	0	2066
32	0	0	2058
33	0	0	2055
34	0	0	2055
35	0	0	2063
36	0	0	2071
37	0	0	2071
38	0	0	2077
39	0	0	2076
40	0	0	2083
41	0	0	2081
42	0	0	2078
43	0	0	2080
44	0	0	2074
45	0	0	2069
46	0	0	2068
47	0	0	2057
48	0	0	2053
49	0	0	2052
50	0	0	2058
51	0	0	2060
52	0	0	2060
53	0	0	2061
54	0	0	2060
55	0	0	2055
56	0	0	2058
57	0	0	2064
58	0	0	2062
59	0	0	2060
60	0	0	2061
61	0	0	2064
62	0	0	2065
63	0	0	2065
64	0	0	2063
65	0	0	2063
66	0	0	2063
67	0	0	2065
68	0	0	2068
69	0	0	2072
70	0	0	2068
71	0	0	2071
72	0	0	2075
73	0	0	2077
74	0	0	2072
75	0	0	2074
76	0	0	2082
77	0	0	2086
78	0	0	2070
79	0	0	2054
80	0	0	2043
81	0	0	2049
82	0	0	2073
83	0	0	2051
84	0	0	2030
85	0	0	2029
86	0	0	2046
87	0	0	2078
88	0	0	2056
89	0	0	2048
90	0	0	2070
91	0	0	2103
92	0	0	2094
93	0	0	2060
94	0	0	2056
95	0	0	2068
96	0	0	2038
97	0	0	2019
98	0	0	2018
99	0	0	2016
100	0	0	2034
101	0	0	2051
102	0	0	2065
103	0	0	2081
104	0	0	2102
105	0	0	2117
106	0	0	2108
107	0	0	2098
108	0	0	2094
109	0	0	2091
110	0	0	2077
111	0	0	2085
112	0	0	2086
113	0	0	2079
114	0	0	2074
115	0	0	2080
116	0	0	2082
117	0	0	2081
118	0	0	2074
119	0	0	2062
120	0	0	2057
121	0	0	2046
122	0	0	2029
123	0	0	2010
124	0	0	2005
125	0	0	1999
126	0	0	2017
127	0	0	2038
0	0	0	2053
1	0	0	2061
2	0	0	2070
3	0	0	2068
4	0	0	2091
5	0	0	2090
6	0	0	2087
7	0	0	2090
8	0	0	2090
9	0	0	2078
10	0	0	2082
11	0	0	2083
12	0	0	2081
13	0	0	2076
14	0	0	2075
15	0	0	2072
16	0	0	2073
17	0	0	2072
18	0	0	2069
19	0	0	2064
20	0	0	2058
21	0	0	2050
22	0	0	2050
23	0	0	2061
24	0	0	2067
25	0	0	2071
26	0	0	2084
27	0	0	2120
28	0	0	2142
29	0	0	2126
30	0	0	2095
31	0	0	2040
32	0	0	1985
33	0	0	1960
34	0	0	1948
35	0	0	1968
36	0	0	2028
37	0	0	2062
38	0	0	2073
39	0	0	2099
40	0	0	2102
41	0	0	2079
42	0	0	2062
43	0	0	2058
44	0	0	2055
45	0	0	2063
46	0	0	2062
47	0	0	2062
48	0	0	2070
49	0	0	2071
50	0	0	2080
51	0	0	2070
52	0	0	2088
53	0	0	2101
54	0	0	2105
55	0	0	2100
56	0	0	2105
57	0	0	2088
58	0	0	2073
59	0	0	2068
60	0	0	2056
61	0	0	2053
62	0	0	2039
63	0	0	2044
64	0	0	2060
65	0	0	2059
66	0	0	2064
67	0	0	2067
68	0	0	2068
69	0	0	2064
70	0	0	2063
71	0	0	2067
72	0	0	2064
73	0	0	2065
74	0	0	2060
75	0	0	2048
76	0	0	2057
77	0	0	2061
78	0	0	2063
79	0	0	2060
80	0	0	2069
81	0	0	2064
82	0	0	2063
83	0	0	2069
84	0	0	2064
85	0	0	2064
86	0	0	2060
87	0	0	2065
88	0	0	2066
89	0	0	2072
90	0	0	2077
91	0	0	2081
92	0	0	2073
93	0	0	2079
94	0	0	2075
95	0	0	2066
96	0	0	2059
97	0	0	2048
98	0	0	2040
99	0	0	2042
100	0	0	2036
101	0	0	2037
102	0	0	2046
103	0	0	2040
104	0	0	2045
105	0	0	2058
106	0	0	2052
107	0	0	2052
108	0	0	2072
109	0	0	2078
110	0	0	2090
111	0	0	2102
112	0	0	2107
113	0	0	2092
114	0	0	2069
115	0	0	2052
116	0	0	2031
117	0	0	2039
118	0	0	2037
119	0	0	2050
120	0	0	2057
121	0	0	2062
122	0	0	2070
123	0	0	2072
124	0	0	2080
125	0	0	2070
126	0	0	2062
127	0	0	2064
0	0	0	2075
1	0	0	2079
2	0	0	2073
3	0	0	2076
4	0	0	2087
5	0	0	2088
6	0	0	2080
7	0	0	2075
8	0	0	2061
9	0	0	2062
10	0	0	2064
11	0	0	2072
12	0	0	2080
13	0	0	2076
14	0	0	2075
15	0	0	2081
16	0	0	2079
17	0	0	2068
18	0	0	2040
19	0	0	2022
20	0	0	2011
21	0	0	2015
22	0	0	2020
23	0	0	2031
24	0	0	2063
25	0	0	2075
26	0	0	2078
27	0	0	2074
28	0	0	2071
29	0	0	2082
30	0	0	2073
31	0	0	2062
32	0	0	2073
33	0	0	2071
34	0	0	2083
35	0	0	2084
36	0	0	2085
37	0	0	2079
38	0	0	2078
39	0	0	2074
40	0	0	2074
41	0	0	2070
42	0	0	2068
43	0	0	2068
44	0	0	2065
45	0	0	2066
46	0	0	2062
47	0	0	2063
48	0	0	2058
49	0	0	2067
50	0	0	2067
51	0	0	2062
52	0	0	2063
53	0	0	2060
54	0	0	2059
55	0	0	2059
56	0	0	2065
57	0	0	2072
58	0	0	2077
59	0	0	2067
60	0	0	2059
61	0	0	2066
62	0	0	2078
63	0	0	2078
64	0	0	2066
65	0	0	2065
66	0	0	2056
67	0	0	2049
68	0	0	2041
69	0	0	2036
70	0	0	2033
71	0	0	2039
72	0	0	2054
73	0	0	2055
74	0	0	2065
75	0	0	2066
76	0	0	2067
77	0	0	2066
78	0	0	2071
79	0	0	2079
80	0	0	2079
81	0	0	2078
82	0	0	2079
83	0	0	2094
84	0	0	2088
85	0	0	2072
86	0	0	2060
87	0	0	2043
88	0	0	2033
89	0	0	2025
90	0	0	2033
91	0	0	2045
92	0	0	2061
93	0	0	2066
94	0	0	2071
95	0	0	2076
96	0	0	2075
97	0	0	2064
98	0	0	2057
99	0	0	2056
100	0	0	2070
101	0	0	2077
102	0	0	2070
103	0	0	2069
104	0	0	2063
105	0	0	2068
106	0	0	2064
107	0	0	2062
108	0	0	2053
109	0	0	2041
110	0	0	2034
111	0	0	2023
112	0	0	2025
113	0	0	2041
114	0	0	2059
115	0	0	2072
116	0	0	2079
117	0	0	2078
118	0	0	2079
119	0	0	2083
120	0	0	2086
121	0	0	2078
122	0	0	2077
123	0	0	2068
124	0	0	2055
125	0	0	2045
126	0	0	2048
127	0	0	2048
0	0	0	2054
1	0	0	2077
2	0	0	2071
3	0	0	2061
4	0	0	2058
5	0	0	2067
6	0	0	2067
7	0	0	2062
8	0	0	2051
9	0	0	2045
10	0	0	2054
11	0	0	2056
12	0	0	2064
13	0	0	2070
14	0	0	2074
15	0	0	2076
16	0	0	2071
17	0	0	2075
18	0	0	2076
19	0	0	2067
20	0	0	2076
21	0	0	2075
22	0	0	2079
23	0	0	2093
24	0	0	2086
25	0	0	2075
26	0	0	2061
27	0	0	2060
28	0	0	2060
29	0	0	2057
30	0	0	2059
31	0	0	2060
32	0	0	2077
33	0	0	2080
34	0	0	2071
35	0	0	2071
36	0	0	2067
37	0	0	2068
38	0	0	2085
39	0	0	2066
40	0	0	2048
41	0	0	2018
42	0	0	2015
43	0	0	2023
44	0	0	2041
45	0	0	2046
46	0	0	2053
47	0	0	2073
48	0	0	2078
49	0	0	2083
50	0	0	2094
51	0	0	2102
52	0	0	2099
53	0	0	2084
54	0	0	2076
55	0	0	2061
56	0	0	2061
57	0	0	2066
58	0	0	2064
59	0	0	2056
60	0	0	2051
61	0	0	2055
62	0	0	2066
63	0	0	2072
64	0	0	2075
65	0	0	2079
66	0	0	2065
67	0	0	2068
68	0	0	2066
69	0	0	2071
70	0	0	2089
71	0	0	2077
72	0	0	2070
73	0	0	2066
74	0	0	2063
75	0	0	2059
76	0	0	2060
77	0	0	2064
78	0	0	2061
79	0	0	2062
80	0	0	2063
81	0	0	2066
82	0	0	2068
83	0	0	2063
84	0	0	2063
85	0	0	2072
86	0	0	2078
87	0	0	2073
88	0	0	2069
89	0	0	2071
90	0	0	2078
91	0	0	2080
92	0	0	2077
93	0	0	2074
94	0	0	2065
95	0	0	2066
96	0	0	2052
97	0	0	2054
98	0	0	2046
99	0	0	2049
100	0	0	2071
101	0	0	2082
102	0	0	2084
103	0	0	2070
104	0	0	2073
105	0	0	2091
106	0	0	2096
107	0	0	2083
108	0	0	2089
109	0	0	2079
110	0	0	2059
111	0	0	2044
112	0	0	2037
113	0	0	2035
114	0	0	2041
115	0	0	2036
116	0	0	2046
117	0	0	2065
118	0	0	2073
119	0	0	2076
120	0	0	2082
121	0	0	2098
122	0	0	2088
123	0	0	2072
124	0	0	2071
125	0	0	2078
126	0	0	2078
127	0	0	2091
0	0	0	2091
1	0	0	2083
2	0	0	2081
3	0	0	2074
4	0	0	2070
5	0	0	2064
6	0	0	2061
7	0	0	2068
8	0	0	2063
9	0	0	2051
10	0	0	2054
11	0	0	2059
12	0	0	2061
13	0	0	2048
14	0	0	2044
15	0	0	2066
16	0	0	2067
17	0	0	2066
18	0	0	2057
19	0	0	2046
20	0	0	2051
21	0	0	2067
22	0	0	2071
23	0	0	2070
24	0	0	2063
25	0	0	2068
26	0	0	2070
27	0	0	2067
28	0	0	2058
29	0	0	2052
30	0	0	2053
31	0	0	2062
32	0	0	2072
33	0	0	2077
34	0	0	2087
35	0	0	2090
36	0	0	2087
37	0	0	2079
38	0	0	2072
39	0	0	2071
40	0	0	2075
41	0	0	2073
42	0	0	2066
43	0	0	2070
44	0	0	2085
45	0	0	2096
46	0	0	2079
47	0	0	2084
48	0	0	2084
49	0	0	2071
50	0	0	2079
51	0	0	2051
52	0	0	2030
53	0	0	2019
54	0	0	2024
55	0	0	2009
56	0	0	2018
57	0	0	2038
58	0	0	2063
59	0	0	2086
60	0	0	2111
61	0	0	2097
62	0	0	2078
63	0	0	2100
64	0	0	2114
65	0	0	2098
66	0	0	2075
67	0	0	2058
68	0	0	2054
69	0	0	2041
70	0	0	2054
71	0	0	2068
72	0	0	2086
73	0	0	2088
74	0	0	2116
75	0	0	2109
76	0	0	2084
77	0	0	2063
78	0	0	2050
79	0	0	2038
80	0	0	2053
81	0	0	2045
82	0	0	2037
83	0	0	2038
84	0	0	2049
85	0	0	2058
86	0	0	2065
87	0	0	2065
88	0	0	2061
89	0	0	2067
90	0	0	2075
91	0	0	2076
92	0	0	2091
93	0	0	2100
94	0	0	2102
95	0	0	2114
96	0	0	2102
97	0	0	2090
98	0	0	2098
99	0	0	2075
100	0	0	2055
101	0	0	2030
102	0	0	2007
103	0	0	1985
104	0	0	1986
105	0	0	1974
106	0	0	1991
107	0	0	2021
108	0	0	2058
109	0	0	2082
110	0	0	2098
111	0	0	2112
112	0	0	2107
113	0	0	2122
114	0	0	2139
115	0	0	2117
116	0	0	2096
117	0	0	2072
118	0	0	2082
119	0	0	2076
120	0	0	2064
121	0	0	2053
122	0	0	2054
123	0	0	2059
124	0	0	2057
125	0	0	2050
126	0	0	2043
127	0	0	2050
0	0	0	2043
1	0	0	2040
2	0	0	2065
3	0	0	2079
4	0	0	2087
5	0	0	2087
6	0	0	2075
7	0	0	2071
8	0	0	2076
9	0	0	2071
10	0	0	2076
11	0	0	2095
12	0	0	2094
13	0	0	2094
14	0	0	2106
15	0	0	2093
16	0	0	2071
17	0	0	2080
18	0	0	2063
19	0	0	2051
20	0	0	2044
21	0	0	2036
22	0	0	2043
23	0	0	2037
24	0	0	2028
25	0	0	2023
26	0	0	2038
27	0	0	2060
28	0	0	2079
29	0	0	2086
30	0	0	2077
31	0	0	2067
32	0	0	2075
33	0	0	2087
34	0	0	2115
35	0	0	2129
36	0	0	2127
37	0	0	2138
38	0	0	2118
39	0	0	2061
40	0	0	2035
41	0	0	2033
42	0	0	2019
43	0	0	1998
44	0	0	2005
45	0	0	2007
46	0	0	2021
47	0	0	2018
48	0	0	2030
49	0	0	2057
50	0	0	2069
51	0	0	2095
52	0	0	2122
53	0	0	2118
54	0	0	2125
55	0	0	2127
56	0	0	2107
57	0	0	2061
58	0	0	2050
59	0	0	2036
60	0	0	2042
61	0	0	2059
62	0	0	2091
63	0	0	2109
64	0	0	2081
65	0	0	2060
66	0	0	2068
67	0	0	2057
68	0	0	2071
69	0	0	2118
70	0	0	2103
71	0	0	2083
72	0	0	2071
73	0	0	2042
74	0	0	2022
75	0	0	2009
76	0	0	2003
77	0	0	2005
78	0	0	2044
79	0	0	2064
80	0	0	2093
81	0	0	2103
82	0	0	2119
83	0	0	2096
84	0	0	2063
85	0	0	2037
86	0	0	2025
87	0	0	2031
88	0	0	2044
89	0	0	2045
90	0	0	2043
91	0	0	2078
92	0	0	2113
93	0	0	2109
94	0	0	2106
95	0	0	2090
96	0	0	2071
97	0	0	2053
98	0	0	2041
99	0	0	2071
100	0	0	2059
101	0	0	2034
102	0	0	2034
103	0	0	2040
104	0	0	2043
105	0	0	2059
106	0	0	2077
107	0	0	2095
108	0	0	2086
109	0	0	2068
110	0	0	2080
111	0	0	2051
112	0	0	2033
113	0	0	2029
114	0	0	2008
115	0	0	2009
116	0	0	2015
117	0	0	2031
118	0	0	2074
119	0	0	2087
120	0	0	2106
121	0	0	2120
122	0	0	2098
123	0	0	2093
124	0	0	2100
125	0	0	2089
126	0	0	2078
127	0	0	2064
0	0	0	2070
1	0	0	2067
2	0	0	2052
3	0	0	2049
4	0	0	2029
5	0	0	2042
6	0	0	2066
7	0	0	2069
8	0	0	2108
9	0	0	2114
10	0	0	2099
11	0	0	2100
12	0	0	2089
13	0	0	2052
14	0	0	2030
15	0	0	2026
16	0	0	2031
17	0	0	2035
18	0	0	2023
19	0	0	2022
20	0	0	2031
21	0	0	2040
22	0	0	2059
23	0	0	2070
24	0	0	2095
25	0	0	2119
26	0	0	2131
27	0	0	2137
28	0	0	2121
29	0	0	2089
30	0	0	2074
31	0	0	2037
32	0	0	2034
33	0	0	2040
34	0	0	2014
35	0	0	2006
36	0	0	2007
37	0	0	2038
38	0	0	2066
39	0	0	2071
40	0	0	2080
41	0	0	2087
42	0	0	2087
43	0	0	2083
44	0	0	2071
45	0	0	2075
46	0	0	2084
47	0	0	2086
48	0	0	2073
49	0	0	2090
50	0	0	2092
51	0	0	2100
52	0	0	2075
53	0	0	2054
54	0	0	2036
55	0	0	2028
56	0	0	2016
57	0	0	2019
58	0	0	2004
59	0	0	2002
60	0	0	2021
61	0	0	2044
62	0	0	2087
63	0	0	2105
64	0	0	2108
65	0	0	2123
66	0	0	2124
67	0	0	2103
68	0	0	2081
69	0	0	2062
70	0	0	2048
71	0	0	2059
72	0	0	2091
73	0	0	2124
74	0	0	2118
75	0	0	2093
76	0	0	2070
77	0	0	2028
78	0	0	2010
79	0	0	1984
80	0	0	1955
81	0	0	1967
82	0	0	2028
83	0	0	2072
84	0	0	2090
85	0	0	2088
86	0	0	2104
87	0	0	2092
88	0	0	2065
89	0	0	2078
90	0	0	2074
91	0	0	2065
92	0	0	2076
93	0	0	2079
94	0	0	2082
95	0	0	2092
96	0	0	2090
97	0	0	2079
98	0	0	2113
99	0	0	2135
100	0	0	2088
101	0	0	2065
102	0	0	2038
103	0	0	2013
104	0	0	2019
105	0	0	2042
106	0	0	2007
107	0	0	1993
108	0	0	2043
109	0	0	2049
110	0	0	2050
111	0	0	2042
112	0	0	2056
113	0	0	2039
114	0	0	2027
115	0	0	2060
116	0	0	2072
117	0	0	2078
118	0	0	2090
119	0	0	2105
120	0	0	2099
121	0	0	2070
122	0	0	2067
123	0	0	2077
124	0	0	2080
125	0	0	2086
126	0	0	2076
127	0	0	2070
0	0	0	2060
1	0	0	2042
2	0	0	2032
3	0	0	2039
4	0	0	2060
5	0	0	2090
6	0	0	2094
7	0	0	2077
8	0	0	2095
9	0	0	2150
10	0	0	2130
11	0	0	2077
12	0	0	2035
13	0	0	1994
14	0	0	1967
15	0	0	1955
16	0	0	1958
17	0	0	2010
18	0	0	2055
19	0	0	2091
20	0	0	2098
21	0	0	2107
22	0	0	2161
23	0	0	2154
24	0	0	2126
25	0	0	2087
26	0	0	2069
27	0	0	2041
28	0	0	2018
29	0	0	2004
30	0	0	2007
31	0	0	1998
32	0	0	2064
33	0	0	2104
34	0	0	2094
35	0	0	2094
36	0	0	2062
37	0	0	2054
38	0	0	2058
39	0	0	2073
40	0	0	2070
41	0	0	2071
42	0	0	2072
43	0	0	2055
44	0	0	2050
45	0	0	2066
46	0	0	2083
47	0	0	2080
48	0	0	2094
49	0	0	2090
50	0	0	2080
51	0	0	2074
52	0	0	2074
53	0	0	2050
54	0	0	2058
55	0	0	2053
56	0	0	2031
57	0	0	2008
58	0	0	2009
59	0	0	2018
60	0	0	2050
61	0	0	2085
62	0	0	2120
63	0	0	2156
64	0	0	2135
65	0	0	2142
66	0	0	2103
67	0	0	2076
68	0	0	2022
69	0	0	1999
70	0	0	1988
71	0	0	1988
72	0	0	2003
73	0	0	2014
74	0	0	2045
75	0	0	2084
76	0	0	2057
77	0	0	2053
78	0	0	2058
79	0	0	2075
80	0	0	2067
81	0	0	2089
82	0	0	2090
83	0	0	2084
84	0	0	2084
85	0	0	2074
86	0	0	2114
87	0	0	2093
88	0	0	2072
89	0	0	2071
90	0	0	2102
91	0	0	2068
92	0	0	2031
93	0	0	2012
94	0	0	2022
95	0	0	2031
96	0	0	2024
97	0	0	2026
98	0	0	2060
99	0	0	2101
100	0	0	2137
101	0	0	2131
102	0	0	2130
103	0	0	2097
104	0	0	2045
105	0	0	2040
106	0	0	2027
107	0	0	2019
108	0	0	2018
109	0	0	2017
110	0	0	2018
111	0	0	2022
112	0	0	2051
113	0	0	2099
114	0	0	2090
115	0	0	2085
116	0	0	2096
117	0	0	2087
118	0	0	2100
119	0	0	2115
120	0	0	2075
121	0	0	2066
122	0	0	2087
123	0	0	2115
124	0	0	2100
125	0	0	2080
126	0	0	2048
127	0	0	2022
0	0	0	2001
1	0	0	2014
2	0	0	1997
3	0	0	1998
4	0	0	2016
5	0	0	2042
6	0	0	2056
7	0	0	2071
8	0	0	2064
9	0	0	2057
10	0	0	2036
11	0	0	2052
12	0	0	2089
13	0	0	2124
14	0	0	2118
15	0	0	2144
16	0	0	2150
17	0	0	2132
18	0	0	2093
19	0	0	2079
20	0	0	2060
21	0	0	2084
22	0	0	2060
23	0	0	2056
24	0	0	2063
25	0	0	2062
26	0	0	2037
27	0	0	2006
28	0	0	2009
29	0	0	1999
30	0	0	1990
31	0	0	2005
32	0	0	2021
33	0	0	2056
34	0	0	2091
35	0	0	2121
36	0	0	2101
37	0	0	2086
38	0	0	2108
39	0	0	2108
40	0	0	2120
41	0	0	2107
42	0	0	2095
43	0	0	2079
44	0	0	2056
45	0	0	2035
46	0	0	2015
47	0	0	2020
48	0	0	2037
49	0	0	2063
50	0	0	2110
51	0	0	2084
52	0	0	2087
53	0	0	2068
54	0	0	2041
55	0	0	2026
56	0	0	2017
57	0	0	2035
58	0	0	2051
59	0	0	2077
60	0	0	2076
61	0	0	2095
62	0	0	2091
63	0	0	2085
64	0	0	2068
65	0	0	2067
66	0	0	2063
67	0	0	2085
68	0	0	2081
69	0	0	2091
70	0	0	2098
71	0	0	2121
72	0	0	2128
73	0	0	2089
74	0	0	2042
75	0	0	2014
76	0	0	1997
77	0	0	2000
78	0	0	2022
79	0	0	2070
80	0	0	2124
81	0	0	2095
82	0	0	2079
83	0	0	2061
84	0	0	2084
85	0	0	2068
86	0	0	2048
87	0	0	2055
88	0	0	2048
89	0	0	2044
90	0	0	2052
91	0	0	2067
92	0	0	2086
93	0	0	2096
94	0	0	2080
95	0	0	2070
96	0	0	2087
97	0	0	2063
98	0	0	2048
99	0	0	2041
100	0	0	2032
101	0	0	2040
102	0	0	2039
103	0	0	2065
104	0	0	2079
105	0	0	2086
106	0	0	2108
107	0	0	2123
108	0	0	2112
109	0	0	2098
110	0	0	2095
111	0	0	2063
112	0	0	2032
113	0	0	2019
114	0	0	2030
115	0	0	2054
116	0	0	2045
117	0	0	2059
118	0	0	2088
119	0	0	2086
120	0	0	2064
121	0	0	2051
122	0	0	2043
123	0	0	2048
124	0	0	2053
125	0	0	2067
126	0	0	2064
127	0	0	2046
0	0	0	2063
1	0	0	2090
2	0	0	2099
3	0	0	2074
4	0	0	2088
5	0	0	2077
6	0	0	2033
7	0	0	2031
8	0	0	2030
9	0	0	2028
10	0	0	2016
11	0	0	1992
12	0	0	2006
13	0	0	2038
14	0	0	2060
15	0	0	2084
16	0	0	2091
17	0	0	2114
18	0	0	2147
19	0	0	2155
20	0	0	2142
21	0	0	2128
22	0	0	2095
23	0	0	2059
24	0	0	2033
25	0	0	2027
26	0	0	2017
27	0	0	2019
28	0	0	2038
29	0	0	2040
30	0	0	2037
31	0	0	2055
32	0	0	2094
33	0	0	2076
34	0	0	2055
35	0	0	2060
36	0	0	2078
37	0	0	2079
38	0	0	2063
39	0	0	2036
40	0	0	2012
41	0	0	2011
42	0	0	2028
43	0	0	2053
44	0	0	2091
45	0	0	2095
46	0	0	2084
47	0	0	2079
48	0	0	2085
49	0	0	2095
50	0	0	2135
51	0	0	2152
52	0	0	2094
53	0	0	2072
54	0	0	2074
55	0	0	2055
56	0	0	2063
57	0	0	2050
58	0	0	2025
59	0	0	1999
60	0	0	1997
61	0	0	2008
62	0	0	2012
63	0	0	2036
64	0	0	2033
65	0	0	2039
66	0	0	2081
67	0	0	2089
68	0	0	2088
69	0	0	2089
70	0	0	2108
71	0	0	2120
72	0	0	2116
73	0	0	2094
74	0	0	2081
75	0	0	2060
76	0	0	2054
77	0	0	2051
78	0	0	2065
79	0	0	2069
80	0	0	2066
81	0	0	2050
82	0	0	2022
83	0	0	2021
84	0	0	2029
85	0	0	2024
86	0	0	2031
87	0	0	2038
88	0	0	2036
89	0	0	2077
90	0	0	2105
91	0	0	2118
92	0	0	2102
93	0	0	2078
94	0	0	2089
95	0	0	2071
96	0	0	2061
97	0	0	2068
98	0	0	2069
99	0	0	2066
100	0	0	2060
101	0	0	2085
102	0	0	2093
103	0	0	2086
104	0	0	2072
105	0	0	2053
106	0	0	2059
107	0	0	2036
108	0	0	2021
109	0	0	2004
110	0	0	2003
111	0	0	2033
112	0	0	2023
113	0	0	2043
114	0	0	2083
115	0	0	2094
116	0	0	2096
117	0	0	2108
118	0	0	2113
119	0	0	2105
120	0	0	2105
121	0	0	2091
122	0	0	2064
123	0	0	2044
124	0	0	2027
125	0	0	2005
126	0	0	2006
127	0	0	2047
0	0	0	2069
1	0	0	2080
2	0	0	2090
3	0	0	2064
4	0	0	2058
5	0	0	2052
6	0	0	2050
7	0	0	2094
8	0	0	2108
9	0	0	2116
10	0	0	2103
11	0	0	2086
12	0	0	2088
13	0	0	2088
14	0	0	2094
15	0	0	2068
16	0	0	2048
17	0	0	2032
18	0	0	2003
19	0	0	1979
20	0	0	1976
21	0	0	1967
22	0	0	1985
23	0	0	2055
24	0	0	2132
25	0	0	2177
26	0	0	2162
27	0	0	2169
28	0	0	2151
29	0	0	2123
30	0	0	2095
31	0	0	2072
32	0	0	2071
33	0	0	2035
34	0	0	2043
35	0	0	2020
36	0	0	2023
37	0	0	2071
38	0	0	2098
39	0	0	2095
40	0	0	2098
41	0	0	2070
42	0	0	2057
43	0	0	2036
44	0	0	2018
45	0	0	2041
46	0	0	2080
47	0	0	2094
48	0	0	2095
49	0	0	2096
50	0	0	2083
51	0	0	2051
52	0	0	2050
53	0	0	2067
54	0	0	2064
55	0	0	2075
56	0	0	2102
57	0	0	2119
58	0	0	2121
59	0	0	2107
60	0	0	2087
61	0	0	2078
62	0	0	2060
63	0	0	2025
64	0	0	1994
65	0	0	1989
66	0	0	2019
67	0	0	2024
68	0	0	2043
69	0	0	2043
70	0	0	2062
71	0	0	2092
72	0	0	2103
73	0	0	2102
74	0	0	2087
75	0	0	2066
76	0	0	2082
77	0	0	2102
78	0	0	2100
79	0	0	2090
80	0	0	2082
81	0	0	2081
82	0	0	2076
83	0	0	2088
84	0	0	2085
85	0	0	2053
86	0	0	2043
87	0	0	2034
88	0	0	2048
89	0	0	2053
90	0	0	2046
91	0	0	2050
92	0	0	2063
93	0	0	2080
94	0	0	2040
95	0	0	2015
96	0	0	1996
97	0	0	1975
98	0	0	2019
99	0	0	2086
100	0	0	2138
101	0	0	2159
102	0	0	2153
103	0	0	2132
104	0	0	2105
105	0	0	2076
106	0	0	2045
107	0	0	2017
108	0	0	2031
109	0	0	2037
110	0	0	2081
111	0	0	2052
112	0	0	2039
113	0	0	2014
114	0	0	2042
115	0	0	2038
116	0	0	2018
117	0	0	2035
118	0	0	2094
119	0	0	2121
120	0	0	2145
121	0	0	2141
122	0	0	2113
123	0	0	2085
124	0	0	2068
125	0	0	2059
126	0	0	2028
127	0	0	2051
0	0	0	2085
1	0	0	2084
2	0	0	2057
3	0	0	2033
4	0	0	2023
5	0	0	2031
6	0	0	2016
7	0	0	2033
8	0	0	2074
9	0	0	2091
10	0	0	2125
11	0	0	2127
12	0	0	2121
13	0	0	2099
14	0	0	2089
15	0	0	2085
16	0	0	2061
17	0	0	2057
18	0	0	2055
19	0	0	2070
20	0	0	2086
21	0	0	2030
22	0	0	1995
23	0	0	1995
24	0	0	2023
25	0	0	2026
26	0	0	2060
27	0	0	2091
28	0	0	2101
29	0	0	2094
30	0	0	2065
31	0	0	2044
32	0	0	2058
33	0	0	2082
34	0	0	2091
35	0	0	2082
36	0	0	2069
37	0	0	2065
38	0	0	2035
39	0	0	2012
40	0	0	2016
41	0	0	2064
42	0	0	2089
43	0	0	2068
44	0	0	2062
45	0	0	2038
46	0	0	2022
47	0	0	2046
48	0	0	2039
49	0	0	2062
50	0	0	2044
51	0	0	2072
52	0	0	2111
53	0	0	2100
54	0	0	2089
55	0	0	2081
56	0	0	2078
57	0	0	2057
58	0	0	2030
59	0	0	2049
60	0	0	2072
61	0	0	2086
62	0	0	2095
63	0	0	2102
64	0	0	2076
65	0	0	2030
66	0	0	2028
67	0	0	2053
68	0	0	2068
69	0	0	2063
70	0	0	2083
71	0	0	2067
72	0	0	2026
73	0	0	2008
74	0	0	2041
75	0	0	2093
76	0	0	2131
77	0	0	2150
78	0	0	2144
79	0	0	2122
80	0	0	2093
81	0	0	2066
82	0	0	2007
83	0	0	1974
84	0	0	2064
85	0	0	2092
86	0	0	2085
87	0	0	2072
88	0	0	2041
89	0	0	1976
90	0	0	2026
91	0	0	2101
92	0	0	2123
93	0	0	2104
94	0	0	2094
95	0	0	2089
96	0	0	2067
97	0	0	2054
98	0	0	2066
99	0	0	2067
100	0	0	2057
101	0	0	2051
102	0	0	2117
103	0	0	2073
104	0	0	2082
105	0	0	2069
106	0	0	2027
107	0	0	2019
108	0	0	2060
109	0	0	2072
110	0	0	2041
111	0	0	1993
112	0	0	2048
113	0	0	2122
114	0	0	2118
115	0	0	2090
116	0	0	2077
117	0	0	2060
118	0	0	2062
119	0	0	2060
120	0	0	2078
121	0	0	2095
122	0	0	2071
123	0	0	2086
124	0	0	2060
125	0	0	2027
126	0	0	2005
127	0	0	1975
0	0	0	2058
1	0	0	2102
2	0	0	2096
3	0	0	2076
4	0	0	2011
5	0	0	1981
6	0	0	2097
7	0	0	2104
8	0	0	2096
9	0	0	2084
10	0	0	2076
11	0	0	2063
12	0	0	2059
13	0	0	2063
14	0	0	2065
15	0	0	2066
16	0	0	2078
17	0	0	2050
18	0	0	2056
19	0	0	2053
20	0	0	2038
21	0	0	2060
22	0	0	2072
23	0	0	2101
24	0	0	2098
25	0	0	2101
26	0	0	2087
27	0	0	2081
28	0	0	2067
29	0	0	2042
30	0	0	2023
31	0	0	2067
32	0	0	2098
33	0	0	2108
34	0	0	2078
35	0	0	2023
36	0	0	1967
37	0	0	2077
38	0	0	2097
39	0	0	2129
40	0	0	2151
41	0	0	2116
42	0	0	2029
43	0	0	1854
44	0	0	1863
45	0	0	2051
46	0	0	2180
47	0	0	2127
48	0	0	2093
49	0	0	2133
50	0	0	2128
51	0	0	2108
52	0	0	2121
53	0	0	2085
54	0	0	2049
55	0	0	1990
56	0	0	2008
57	0	0	2089
58	0	0	2066
59	0	0	2069
60	0	0	2097
61	0	0	2098
62	0	0	2122
63	0	0	2163
64	0	0	2088
65	0	0	2021
66	0	0	2001
67	0	0	2052
68	0	0	2096
69	0	0	2059
70	0	0	2054
71	0	0	2084
72	0	0	2059
73	0	0	2120
74	0	0	2095
75	0	0	2073
76	0	0	2075
77	0	0	2111
78	0	0	2111
79	0	0	2084
80	0	0	2062
81	0	0	2026
82	0	0	1987
83	0	0	2040
84	0	0	2114
85	0	0	2080
86	0	0	2017
87	0	0	2080
88	0	0	2140
89	0	0	2099
90	0	0	2110
91	0	0	2101
92	0	0	2110
93	0	0	2022
94	0	0	1985
95	0	0	1983
96	0	0	1909
97	0	0	2018
98	0	0	2052
99	0	0	2049
100	0	0	2079
101	0	0	2106
102	0	0	2130
103	0	0	2078
104	0	0	2038
105	0	0	2044
106	0	0	2098
107	0	0	2107
108	0	0	2073
109	0	0	2030
110	0	0	1995
111	0	0	1948
112	0	0	1900
113	0	0	1944
114	0	0	2104
115	0	0	2145
116	0	0	2117
117	0	0	2108
118	0	0	2092
119	0	0	2051
120	0	0	2067
121	0	0	2037
122	0	0	2024
123	0	0	2050
124	0	0	2065
125	0	0	2066
126	0	0	2059
127	0	0	2080
0	0	0	2078
1	0	0	2050
2	0	0	2073
3	0	0	2114
4	0	0	2110
5	0	0	2099
6	0	0	2084
7	0	0	2115
8	0	0	1972
9	0	0	1985
10	0	0	2058
11	0	0	2091
12	0	0	2107
13	0	0	2102
14	0	0	2054
15	0	0	2062
16	0	0	2116
17	0	0	2135
18	0	0	2110
19	0	0	2051
20	0	0	1999
21	0	0	2043
22	0	0	2029
23	0	0	2026
24	0	0	2041
25	0	0	2105
26	0	0	2142
27	0	0	2109
28	0	0	2071
29	0	0	2028
30	0	0	1968
31	0	0	1973
32	0	0	2112
33	0	0	2146
34	0	0	2082
35	0	0	2017
36	0	0	2101
37	0	0	2085
38	0	0	2055
39	0	0	2031
40	0	0	2070
41	0	0	2085
42	0	0	2073
43	0	0	2021
44	0	0	2042
45	0	0	2053
46	0	0	2032
47	0	0	2085
48	0	0	2083
49	0	0	2134
50	0	0	2150
51	0	0	2067
52	0	0	2027
53	0	0	2001
54	0	0	1996
55	0	0	1963
56	0	0	1969
57	0	0	2080
58	0	0	2109
59	0	0	2091
60	0	0	2072
61	0	0	2030
62	0	0	2126
63	0	0	2115
64	0	0	2108
65	0	0	2059
66	0	0	1986
67	0	0	2044
68	0	0	2103
69	0	0	2135
70	0	0	2123
71	0	0	2173
72	0	0	2162
73	0	0	2070
74	0	0	1947
75	0	0	1918
76	0	0	1971
77	0	0	2036
78	0	0	2041
79	0	0	2124
80	0	0	2164
81	0	0	2079
82	0	0	2110
83	0	0	2096
84	0	0	2102
85	0	0	2057
86	0	0	2094
87	0	0	2089
88	0	0	2052
89	0	0	2050
90	0	0	2011
91	0	0	2073
92	0	0	2086
93	0	0	2145
94	0	0	2186
95	0	0	2091
96	0	0	1993
97	0	0	1951
98	0	0	1982
99	0	0	2089
100	0	0	2055
101	0	0	2076
102	0	0	2086
103	0	0	2063
104	0	0	2105
105	0	0	2122
106	0	0	2121
107	0	0	2077
108	0	0	2052
109	0	0	2001
110	0	0	2022
111	0	0	2012
112	0	0	2020
113	0	0	2039
114	0	0	2195
115	0	0	2211
116	0	0	2181
117	0	0	2098
118	0	0	2015
119	0	0	1990
120	0	0	1996
121	0	0	1965
122	0	0	1965
123	0	0	2130
124	0	0	2207
125	0	0	2248
126	0	0	2207
127	0	0	2192
0	0	0	1946
1	0	0	1897
2	0	0	1921
3	0	0	1928
4	0	0	1969
5	0	0	2132
6	0	0	2183
7	0	0	2158
8	0	0	2129
9	0	0	2086
10	0	0	2016
11	0	0	2015
12	0	0	1928
13	0	0	1903
14	0	0	1962
15	0	0	2128
16	0	0	2207
17	0	0	2146
18	0	0	1979
19	0	0	1958
20	0	0	1993
21	0	0	2000
22	0	0	2022
23	0	0	2111
24	0	0	2114
25	0	0	2056
26	0	0	2068
27	0	0	2078
28	0	0	2067
29	0	0	2064
30	0	0	1983
31	0	0	1980
32	0	0	2095
33	0	0	2057
34	0	0	2088
35	0	0	2094
36	0	0	2032
37	0	0	1999
38	0	0	1929
39	0	0	1976
40	0	0	2052
41	0	0	2131
42	0	0	2064
43	0	0	2071
44	0	0	2096
45	0	0	2148
46	0	0	2124
47	0	0	2090
48	0	0	2066
49	0	0	2085
50	0	0	2039
51	0	0	1967
52	0	0	1984
53	0	0	2058
54	0	0	2044
55	0	0	2042
56	0	0	2168
57	0	0	2105
58	0	0	2009
59	0	0	2022
60	0	0	2020
61	0	0	1997
62	0	0	2060
63	0	0	2124
64	0	0	2168
65	0	0	2068
66	0	0	2084
67	0	0	2056
68	0	0	2019
69	0	0	2003
70	0	0	2034
71	0	0	2144
72	0	0	2090
73	0	0	2099
74	0	0	2132
75	0	0	2102
76	0	0	2091
77	0	0	1963
78	0	0	1954
79	0	0	2046
80	0	0	2070
81	0	0	2076
82	0	0	2002
83	0	0	2169
84	0	0	2181
85	0	0	2113
86	0	0	2087
87	0	0	2012
88	0	0	1961
89	0	0	1931
90	0	0	2098
91	0	0	2109
92	0	0	2058
93	0	0	2117
94	0	0	2184
95	0	0	2100
96	0	0	2026
97	0	0	2027
98	0	0	2027
99	0	0	1945
100	0	0	2020
101	0	0	2186
102	0	0	2117
103	0	0	1942
104	0	0	2035
105	0	0	2115
106	0	0	2168
107	0	0	2133
108	0	0	2106
109	0	0	2063
110	0	0	2015
111	0	0	1989
112	0	0	2078
113	0	0	2202
114	0	0	2171
115	0	0	2036
116	0	0	1955
117	0	0	2001
118	0	0	2044
119	0	0	2007
120	0	0	2015
121	0	0	2081
122	0	0	2083
123	0	0	2122
124	0	0	2146
125	0	0	2145
126	0	0	2142
127	0	0	2130
0	0	0	2062
1	0	0	2030
2	0	0	2018
3	0	0	1975
4	0	0	1942
5	0	0	1849
6	0	0	1923
7	0	0	2101
8	0	0	2194
9	0	0	2208
10	0	0	2198
11	0	0	2195
12	0	0	2173
13	0	0	2057
14	0	0	1985
15	0	0	1909
16	0	0	2064
17	0	0	2197
18	0	0	2176
19	0	0	2022
20	0	0	2060
21	0	0	2041
22	0	0	1922
23	0	0	1939
24	0	0	2076
25	0	0	2226
26	0	0	2084
27	0	0	2001
28	0	0	1985
29	0	0	1962
30	0	0	2079
31	0	0	2135
32	0	0	2146
33	0	0	2142
34	0	0	2123
35	0	0	2081
36	0	0	2100
37	0	0	2087
38	0	0	2030
39	0	0	2020
40	0	0	2082
41	0	0	2078
42	0	0	1959
43	0	0	1990
44	0	0	2005
45	0	0	1991
46	0	0	1946
47	0	0	2122
48	0	0	2281
49	0	0	2262
50	0	0	2128
51	0	0	1980
52	0	0	1901
53	0	0	1844
54	0	0	1938
55	0	0	2040
56	0	0	2080
57	0	0	2156
58	0	0	2164
59	0	0	2234
60	0	0	2233
61	0	0	2194
62	0	0	2137
63	0	0	2031
64	0	0	1785
65	0	0	1737
66	0	0	1898
67	0	0	1964
68	0	0	2022
69	0	0	2160
70	0	0	2312
71	0	0	2286
72	0	0	2221
73	0	0	2015
74	0	0	1913
75	0	0	2018
76	0	0	2117
77	0	0	2202
78	0	0	2142
79	0	0	2123
80	0	0	1991
81	0	0	1922
82	0	0	1959
83	0	0	1922
84	0	0	2045
85	0	0	2118
86	0	0	2207
87	0	0	2270
88	0	0	2349
89	0	0	2374
90	0	0	2279
91	0	0	2109
92	0	0	1973
93	0	0	1790
94	0	0	1945
95	0	0	2038
96	0	0	2010
97	0	0	2168
98	0	0	2336
99	0	0	2220
100	0	0	2133
101	0	0	1977
102	0	0	1909
103	0	0	1885
104	0	0	1937
105	0	0	2036
106	0	0	2093
107	0	0	2213
108	0	0	2214
109	0	0	2160
110	0	0	2131
111	0	0	1982
112	0	0	2027
113	0	0	2020
114	0	0	1980
115	0	0	2002
116	0	0	2032
117	0	0	2095
118	0	0	2001
119	0	0	2059
120	0	0	2136
121	0	0	2185
122	0	0	2032
123	0	0	1898
124	0	0	1918
125	0	0	1979
126	0	0	2043
127	0	0	2081
0	0	0	2109
1	0	0	2108
2	0	0	1971
3	0	0	1972
4	0	0	2152
5	0	0	2179
6	0	0	2092
7	0	0	2092
8	0	0	2073
9	0	0	2040
10	0	0	2166
11	0	0	2141
12	0	0	1970
13	0	0	1883
14	0	0	2114
15	0	0	2190
16	0	0	2177
17	0	0	2102
18	0	0	2176
19	0	0	2231
20	0	0	2268
21	0	0	2209
22	0	0	2033
23	0	0	2030
24	0	0	1950
25	0	0	1855
26	0	0	1939
27	0	0	2078
28	0	0	2234
29	0	0	2269
30	0	0	2019
31	0	0	1901
32	0	0	2113
33	0	0	2122
34	0	0	1938
35	0	0	1940
36	0	0	1906
37	0	0	2077
38	0	0	2254
39	0	0	2228
40	0	0	2152
41	0	0	2081
42	0	0	2079
43	0	0	2091
44	0	0	2116
45	0	0	2126
46	0	0	2121
47	0	0	2125
48	0	0	2067
49	0	0	1956
50	0	0	1995
51	0	0	2060
52	0	0	2104
53	0	0	1946
54	0	0	1930
55	0	0	2056
56	0	0	2127
57	0	0	2113
58	0	0	2136
59	0	0	2153
60	0	0	2033
61	0	0	2117
62	0	0	2088
63	0	0	2027
64	0	0	1960
65	0	0	1980
66	0	0	2024
67	0	0	1904
68	0	0	1934
69	0	0	2042
70	0	0	2032
71	0	0	1995
72	0	0	2076
73	0	0	2124
74	0	0	2205
75	0	0	2149
76	0	0	2096
77	0	0	2052
78	0	0	2034
79	0	0	2046
80	0	0	2037
81	0	0	2067
82	0	0	2142
83	0	0	2090
84	0	0	1937
85	0	0	1973
86	0	0	2009
87	0	0	2010
88	0	0	2063
89	0	0	2142
90	0	0	2171
91	0	0	2031
92	0	0	2026
93	0	0	2082
94	0	0	2009
95	0	0	2033
96	0	0	2067
97	0	0	2120
98	0	0	2044
99	0	0	1968
100	0	0	1982
101	0	0	2089
102	0	0	2131
103	0	0	2201
104	0	0	2147
105	0	0	2083
106	0	0	2038
107	0	0	1953
108	0	0	1991
109	0	0	2065
110	0	0	2044
111	0	0	2120
112	0	0	2061
113	0	0	2134
114	0	0	2147
115	0	0	2018
116	0	0	1908
117	0	0	1980
118	0	0	2045
119	0	0	2104
120	0	0	2070
121	0	0	2125
122	0	0	2238
123	0	0	2142
124	0	0	2007
125	0	0	1937
126	0	0	1978
127	0	0	1944
0	0	0	2040
1	0	0	2162
2	0	0	2149
3	0	0	2136
4	0	0	2088
5	0	0	2013
6	0	0	2042
7	0	0	2024
8	0	0	1991
9	0	0	2011
10	0	0	2104
11	0	0	2088
12	0	0	2083
13	0	0	2127
14	0	0	2133
15	0	0	2125
16	0	0	2136
17	0	0	2079
18	0	0	1980
19	0	0	1899
20	0	0	1897
21	0	0	2020
22	0	0	2073
23	0	0	2108
24	0	0	2108
25	0	0	2076
26	0	0	2026
27	0	0	2043
28	0	0	2001
29	0	0	2054
30	0	0	2096
31	0	0	2097
32	0	0	2119
33	0	0	2089
34	0	0	2072
35	0	0	2085
36	0	0	2076
37	0	0	2039
38	0	0	2040
39	0	0	2071
40	0	0	2080
41	0	0	2090
42	0	0	2091
43	0	0	2099
44	0	0	2088
45	0	0	2074
46	0	0	2108
47	0	0	2109
48	0	0	2032
49	0	0	1948
50	0	0	1902
51	0	0	1859
52	0	0	1939
53	0	0	2084
54	0	0	2171
55	0	0	2182
56	0	0	2197
57	0	0	2161
58	0	0	2105
59	0	0	2073
60	0	0	1991
61	0	0	2009
62	0	0	1995
63	0	0	1978
64	0	0	2151
65	0	0	2148
66	0	0	2001
67	0	0	1933
68	0	0	1994
69	0	0	2059
70	0	0	2081
71	0	0	2062
72	0	0	2091
73	0	0	2114
74	0	0	2130
75	0	0	2120
76	0	0	2081
77	0	0	2083
78	0	0	2088
79	0	0	2052
80	0	0	2062
81	0	0	2054
82	0	0	2067
83	0	0	2058
84	0	0	2028
85	0	0	2043
86	0	0	2064
87	0	0	2073
88	0	0	2056
89	0	0	2052
90	0	0	2085
91	0	0	2100
92	0	0	2096
93	0	0	2058
94	0	0	2051
95	0	0	2021
96	0	0	1976
97	0	0	2004
98	0	0	2111
99	0	0	2127
100	0	0	2120
101	0	0	2093
102	0	0	2096
103	0	0	2033
104	0	0	2014
105	0	0	1995
106	0	0	2005
107	0	0	2020
108	0	0	1997
109	0	0	2013
110	0	0	2108
111	0	0	2148
112	0	0	2126
113	0	0	2086
114	0	0	2063
115	0	0	2076
116	0	0	2082
117	0	0	2082
118	0	0	2076
119	0	0	2103
120	0	0	2094
121	0	0	2069
122	0	0	2025
123	0	0	2037
124	0	0	2027
125	0	0	2048
126	0	0	2064
127	0	0	2064
0	0	0	2071
1	0	0	2068
2	0	0	2077
3	0	0	2067
4	0	0	2050
5	0	0	2051
6	0	0	2084
7	0	0	2116
8	0	0	2177
9	0	0	2190
10	0	0	2150
11	0	0	2011
12	0	0	1931
13	0	0	1878
14	0	0	1847
15	0	0	1907
16	0	0	2021
17	0	0	2178
18	0	0	2150
19	0	0	2130
20	0	0	2132
21	0	0	2109
22	0	0	2096
23	0	0	2072
24	0	0	2076
25	0	0	2077
26	0	0	2078
27	0	0	2068
28	0	0	2073
29	0	0	2063
30	0	0	2069
31	0	0	2072
32	0	0	2060
33	0	0	2056
34	0	0	2054
35	0	0	2054
36	0	0	2068
37	0	0	2079
38	0	0	2094
39	0	0	2069
40	0	0	2035
41	0	0	2003
42	0	0	2004
43	0	0	2058
44	0	0	2075
45	0	0	2050
46	0	0	2051
47	0	0	2063
48	0	0	2057
49	0	0	2066
50	0	0	2077
51	0	0	2084
52	0	0	2093
53	0	0	2077
54	0	0	2062
55	0	0	2070
56	0	0	2070
57	0	0	2063
58	0	0	2076
59	0	0	2071
60	0	0	2083
61	0	0	2081
62	0	0	2066
63	0	0	2010
64	0	0	2032
65	0	0	2085
66	0	0	2071
67	0	0	2066
68	0	0	2064
69	0	0	2050
70	0	0	2061
71	0	0	2127
72	0	0	2090
73	0	0	1978
74	0	0	2041
75	0	0	2036
76	0	0	2017
77	0	0	2031
78	0	0	2083
79	0	0	2099
80	0	0	2103
81	0	0	2081
82	0	0	2061
83	0	0	2071
84	0	0	2072
85	0	0	2059
86	0	0	2057
87	0	0	2078
88	0	0	2086
89	0	0	2075
90	0	0	2066
91	0	0	2059
92	0	0	2056
93	0	0	2059
94	0	0	2068
95	0	0	2079
96	0	0	2075
97	0	0	2052
98	0	0	2036
99	0	0	2049
100	0	0	2052
101	0	0	2065
102	0	0	2061
103	0	0	2048
104	0	0	2074
105	0	0	2036
106	0	0	2066
107	0	0	2073
108	0	0	2011
109	0	0	1983
110	0	0	2032
111	0	0	2049
112	0	0	2096
113	0	0	2092
114	0	0	2059
115	0	0	2069
116	0	0	2078
117	0	0	2072
118	0	0	2075
119	0	0	2072
120	0	0	2066
121	0	0	2055
122	0	0	2061
123	0	0	2058
124	0	0	2061
125	0	0	2058
126	0	0	2056
127	0	0	2057
0	0	0	2061
1	0	0	2054
2	0	0	2060
3	0	0	2068
4	0	0	2068
5	0	0	2067
6	0	0	2065
7	0	0	2073
8	0	0	2075
9	0	0	2077
10	0	0	2067
11	0	0	2056
12	0	0	2049
13	0	0	2051
14	0	0	2067
15	0	0	2084
16	0	0	2079
17	0	0	2075
18	0	0	2064
19	0	0	2044
20	0	0	2035
21	0	0	2087
22	0	0	2080
23	0	0	2077
24	0	0	2070
25	0	0	2062
26	0	0	2064
27	0	0	2058
28	0	0	2064
29	0	0	2075
30	0	0	2067
31	0	0	2065
32	0	0	2064
33	0	0	2067
34	0	0	2074
35	0	0	2065
36	0	0	2060
37	0	0	2062
38	0	0	2064
39	0	0	2069
40	0	0	2079
41	0	0	2101
42	0	0	2079
43	0	0	2062
44	0	0	2061
45	0	0	2038
46	0	0	2008
47	0	0	2067
48	0	0	2071
49	0	0	2072
50	0	0	2055
51	0	0	2032
52	0	0	2062
53	0	0	2085
54	0	0	2085
55	0	0	2084
56	0	0	2072
57	0	0	2066
58	0	0	2064
59	0	0	2062
60	0	0	2063
61	0	0	2059
62	0	0	2060
63	0	0	2057
64	0	0	2058
65	0	0	2064
66	0	0	2078
67	0	0	2075
68	0	0	2068
69	0	0	2078
70	0	0	2071
71	0	0	2062
72	0	0	2068
73	0	0	2077
74	0	0	2076
75	0	0	2075
76	0	0	2075
77	0	0	2065
78	0	0	2062
79	0	0	2061
80	0	0	2056
81	0	0	2055
82	0	0	2064
83	0	0	2066
84	0	0	2067
85	0	0	2060
86	0	0	2065
87	0	0	2066
88	0	0	2075
89	0	0	2072
90	0	0	2067
91	0	0	2062
92	0	0	2061
93	0	0	2072
94	0	0	2076
95	0	0	2083
96	0	0	2082
97	0	0	2075
98	0	0	2060
99	0	0	2050
100	0	0	2061
101	0	0	2076
102	0	0	2091
103	0	0	2090
104	0	0	2078
105	0	0	2072
106	0	0	2069
107	0	0	2069
108	0	0	2061
109	0	0	2059
110	0	0	2057
111	0	0	2068
112	0	0	2076
113	0	0	2078
114	0	0	2073
115	0	0	2071
116	0	0	2061
117	0	0	2080
118	0	0	2090
119	0	0	2079
120	0	0	2078
121	0	0	2082
122	0	0	2060
123	0	0	2054
124	0	0	2061
125	0	0	2056
126	0	0	2066
127	0	0	2064
0	0	0	2066
1	0	0	2068
2	0	0	2065
3	0	0	2067
4	0	0	2068
5	0	0	2077
6	0	0	2085
7	0	0	2066
8	0	0	2071
9	0	0	2073
10	0	0	2048
11	0	0	2020
12	0	0	2046
13	0	0	2071
14	0	0	2069
15	0	0	2064
16	0	0	2062
17	0	0	2059
18	0	0	2064
19	0	0	2063
20	0	0	2070
21	0	0	2071
22	0	0	2072
23	0	0	2071
24	0	0	2073
25	0	0	2066
26	0	0	2068
27	0	0	2063
28	0	0	2060
29	0	0	2059
30	0	0	2070
31	0	0	2064
32	0	0	2051
33	0	0	2058
34	0	0	2079
35	0	0	2080
36	0	0	2070
37	0	0	2072
38	0	0	2066
39	0	0	2065
40	0	0	2057
41	0	0	2073
42	0	0	2080
43	0	0	2064
44	0	0	2060
45	0	0	2073
46	0	0	2070
47	0	0	2069
48	0	0	2074
49	0	0	2066
50	0	0	2058
51	0	0	2061
52	0	0	2070
53	0	0	2067
54	0	0	2064
55	0	0	2059
56	0	0	2059
57	0	0	2063
58	0	0	2070
59	0	0	2065
60	0	0	2058
61	0	0	2055
62	0	0	2054
63	0	0	2069
64	0	0	2065
65	0	0	2066
66	0	0	2076
67	0	0	2067
68	0	0	2065
69	0	0	2063
70	0	0	2065
71	0	0	2070
72	0	0	2063
73	0	0	2063
74	0	0	2059
75	0	0	2061
76	0	0	2057
77	0	0	2061
78	0	0	2076
79	0	0	2085
80	0	0	2080
81	0	0	2072
82	0	0	2070
83	0	0	2062
84	0	0	2064
85	0	0	2056
86	0	0	2057
87	0	0	2057
88	0	0	2058
89	0	0	2058
90	0	0	2066
91	0	0	2063
92	0	0	2066
93	0	0	2069
94	0	0	2074
95	0	0	2074
96	0	0	2074
97	0	0	2073
98	0	0	2065
99	0	0	2058
100	0	0	2066
101	0	0	2075
102	0	0	2075
103	0	0	2068
104	0	0	2059
105	0	0	2058
106	0	0	2069
107	0	0	2066
108	0	0	2064
109	0	0	2067
110	0	0	2064
111	0	0	2064
112	0	0	2069
113	0	0	2056
114	0	0	2046
115	0	0	2053
116	0	0	2062
117	0	0	2067
118	0	0	2071
119	0	0	2084
120	0	0	2083
121	0	0	2062
122	0	0	2057
123	0	0	2074
124	0	0	2077
125	0	0	2060
126	0	0	2069
127	0	0	2073
0	0	0	2068
1	0	0	2059
2	0	0	2060
3	0	0	2066
4	0	0	2064
5	0	0	2061
6	0	0	2059
7	0	0	2061
8	0	0	2059
9	0	0	2070
10	0	0	2060
11	0	0	2060
12	0	0	2060
13	0	0	2060
14	0	0	2065
15	0	0	2060
16	0	0	2063
17	0	0	2063
18	0	0	2063
19	0	0	2076
20	0	0	2073
21	0	0	2064
22	0	0	2068
23	0	0	2068
24	0	0	2066
25	0	0	2064
26	0	0	2067
27	0	0	2077
28	0	0	2065
29	0	0	2055
30	0	0	2054
31	0	0	2057
32	0	0	2064
33	0	0	2065
34	0	0	2063
35	0	0	2065
36	0	0	2071
37	0	0	2064
38	0	0	2058
39	0	0	2070
40	0	0	2070
41	0	0	2067
42	0	0	2057
43	0	0	2054
44	0	0	2060
45	0	0	2060
46	0	0	2065
47	0	0	2069
48	0	0	2068
49	0	0	2069
50	0	0	2067
51	0	0	2069
52	0	0	2081
53	0	0	2075
54	0	0	2070
55	0	0	2057
56	0	0	2049
57	0	0	2060
58	0	0	2064
59	0	0	2059
60	0	0	2062
61	0	0	2068
62	0	0	2063
63	0	0	2066
64	0	0	2080
65	0	0	2075
66	0	0	2071
67	0	0	2058
68	0	0	2060
69	0	0	2068
70	0	0	2067
71	0	0	2067
72	0	0	2065
73	0	0	2053
74	0	0	2053
75	0	0	2069
76	0	0	2078
77	0	0	2080
78	0	0	2065
79	0	0	2050
80	0	0	2054
81	0	0	2066
82	0	0	2070
83	0	0	2069
84	0	0	2064
85	0	0	2067
86	0	0	2073
87	0	0	2073
88	0	0	2070
89	0	0	2064
90	0	0	2062
91	0	0	2064
92	0	0	2067
93	0	0	2060
94	0	0	2050
95	0	0	2057
96	0	0	2068
97	0	0	2069
98	0	0	2073
99	0	0	2061
100	0	0	2059
101	0	0	2059
102	0	0	2071
103	0	0	2065
104	0	0	2055
105	0	0	2064
106	0	0	2063
107	0	0	2070
108	0	0	2076
109	0	0	2082
110	0	0	2074
111	0	0	2067
112	0	0	2064
113	0	0	2063
114	0	0	2055
115	0	0	2059
116	0	0	2064
117	0	0	2075
118	0	0	2066
119	0	0	2066
120	0	0	2080
121	0	0	2079
122	0	0	2079
123	0	0	2075
124	0	0	2066
125	0	0	2054
126	0	0	2028
127	0	0	2014
0	0	0	2022
1	0	0	2043
2	0	0	2064
3	0	0	2078
4	0	0	2097
5	0	0	2088
6	0	0	2073
7	0	0	2069
8	0	0	2068
9	0	0	2077
10	0	0	2075
11	0	0	2078
12	0	0	2072
13	0	0	2056
14	0	0	2052
15	0	0	2066
16	0	0	2071
17	0	0	2069
18	0	0	2068
19	0	0	2077
20	0	0	2072
21	0	0	2061
22	0	0	2056
23	0	0	2052
24	0	0	2056
25	0	0	2049
26	0	0	2057
27	0	0	2065
28	0	0	2069
29	0	0	2066
30	0	0	2074
31	0	0	2071
32	0	0	2074
33	0	0	2071
34	0	0	2076
35	0	0	2087
36	0	0	2070
37	0	0	2053
38	0	0	2058
39	0	0	2057
40	0	0	2059
41	0	0	2055
42	0	0	2057
43	0	0	2053
44	0	0	2054
45	0	0	2058
46	0	0	2068
47	0	0	2070
48	0	0	2067
49	0	0	2064
50	0	0	2063
51	0	0	2057
52	0	0	2055
53	0	0	2065
54	0	0	2061
55	0	0	2066
56	0	0	2076
57	0	0	2075
58	0	0	2068
59	0	0	2070
60	0	0	2071
61	0	0	2063
62	0	0	2059
63	0	0	2055
64	0	0	2057
65	0	0	2066
66	0	0	2072
67	0	0	2065
68	0	0	2072
69	0	0	2073
70	0	0	2068
71	0	0	2063
72	0	0	2064
73	0	0	2071
74	0	0	2062
75	0	0	2066
76	0	0	2071
77	0	0	2054
78	0	0	2048
79	0	0	2049
80	0	0	2060
81	0	0	2046
82	0	0	2048
83	0	0	2046
84	0	0	2066
85	0	0	2079
86	0	0	2087
87	0	0	2091
88	0	0	2092
89	0	0	2099
90	0	0	2104
91	0	0	2090
92	0	0	2065
93	0	0	2068
94	0	0	2063
95	0	0	2044
96	0	0	2018
97	0	0	2016
98	0	0	2032
99	0	0	2044
100	0	0	2053
101	0	0	2053
102	0	0	2080
103	0	0	2078
104	0	0	2075
105	0	0	2068
106	0	0	2066
107	0	0	2065
108	0	0	2078
109	0	0	2071
110	0	0	2067
111	0	0	2072
112	0	0	2069
113	0	0	2080
114	0	0	2077
115	0	0	2078
116	0	0	2073
117	0	0	2064
118	0	0	2076
119	0	0	2078
120	0	0	2076
121	0	0	2077
122	0	0	2080
123	0	0	2074
124	0	0	2059
125	0	0	2054
126	0	0	2054
127	0	0	2045
0	0	0	2043
1	0	0	2041
2	0	0	2059
3	0	0	2067
4	0	0	2070
5	0	0	2071
6	0	0	2073
7	0	0	2069
8	0	0	2064
9	0	0	2058
10	0	0	2064
11	0	0	2070
12	0	0	2061
13	0	0	2063
14	0	0	2059
15	0	0	2057
16	0	0	2048
17	0	0	2056
18	0	0	2068
19	0	0	2078
20	0	0	2072
21	0	0	2069
22	0	0	2065
23	0	0	2063
24	0	0	2070
25	0	0	2078
26	0	0	2084
27	0	0	2094
28	0	0	2084
29	0	0	2074
30	0	0	2055
31	0	0	2057
32	0	0	2060
33	0	0	2068
34	0	0	2060
35	0	0	2046
36	0	0	2038
37	0	0	2038
38	0	0	2031
39	0	0	2031
40	0	0	2044
41	0	0	2050
42	0	0	2056
43	0	0	2067
44	0	0	2081
45	0	0	2081
46	0	0	2065
47	0	0	2076
48	0	0	2093
49	0	0	2089
50	0	0	2088
51	0	0	2076
52	0	0	2067
53	0	0	2073
54	0	0	2068
55	0	0	2059
56	0	0	2056
57	0	0	2063
58	0	0	2075
59	0	0	2098
60	0	0	2107
61	0	0	2091
62	0	0	2082
63	0	0	2068
64	0	0	2071
65	0	0	2050
66	0	0	2028
67	0	0	2014
68	0	0	2006
69	0	0	2016
70	0	0	2024
71	0	0	2037
72	0	0	2043
73	0	0	2077
74	0	0	2086
75	0	0	2087
76	0	0	2092
77	0	0	2093
78	0	0	2096
79	0	0	2088
80	0	0	2072
81	0	0	2065
82	0	0	2063
83	0	0	2070
84	0	0	2067
85	0	0	2073
86	0	0	2076
87	0	0	2076
88	0	0	2082
89	0	0	2068
90	0	0	2062
91	0	0	2052
92	0	0	2046
93	0	0	2058
94	0	0	2060
95	0	0	2054
96	0	0	2051
97	0	0	2053
98	0	0	2057
99	0	0	2062
100	0	0	2065
101	0	0	2056
102	0	0	2061
103	0	0	2071
104	0	0	2089
105	0	0	2093
106	0	0	2087
107	0	0	2090
108	0	0	2077
109	0	0	2063
110	0	0	2052
111	0	0	2058
112	0	0	2037
113	0	0	2032
114	0	0	2044
115	0	0	2063
116	0	0	2108
117	0	0	2132
118	0	0	2127
119	0	0	2136
120	0	0	2101
121	0	0	2031
122	0	0	2004
123	0	0	1996
124	0	0	1989
125	0	0	1985
126	0	0	1990
127	0	0	1993
0	0	0	1989
1	0	0	2034
2	0	0	2077
3	0	0	2108
4	0	0	2105
5	0	0	2123
6	0	0	2143
7	0	0	2122
8	0	0	2104
9	0	0	2102
10	0	0	2104
11	0	0	2092
12	0	0	2084
13	0	0	2069
14	0	0	2071
15	0	0	2081
16	0	0	2091
17	0	0	2084
18	0	0	2095
19	0	0	2084
20	0	0	2067
21	0	0	2051
22	0	0	2037
23	0	0	2027
24	0	0	2023
25	0	0	2025
26	0	0	2027
27	0	0	2028
28	0	0	2021
29	0	0	2036
30	0	0	2055
31	0	0	2076
32	0	0	2073
33	0	0	2082
34	0	0	2088
35	0	0	2078
36	0	0	2092
37	0	0	2085
38	0	0	2079
39	0	0	2081
40	0	0	2080
41	0	0	2068
42	0	0	2072
43	0	0	2075
44	0	0	2077
45	0	0	2097
46	0	0	2113
47	0	0	2080
48	0	0	2053
49	0	0	2057
50	0	0	2037
51	0	0	2020
52	0	0	2009
53	0	0	2013
54	0	0	2035
55	0	0	2044
56	0	0	2060
57	0	0	2080
58	0	0	2082
59	0	0	2080
60	0	0	2075
61	0	0	2074
62	0	0	2076
63	0	0	2079
64	0	0	2076
65	0	0	2071
66	0	0	2094
67	0	0	2091
68	0	0	2084
69	0	0	2073
70	0	0	2066
71	0	0	2063
72	0	0	2055
73	0	0	2052
74	0	0	2049
75	0	0	2060
76	0	0	2056
77	0	0	2050
78	0	0	2059
79	0	0	2103
80	0	0	2104
81	0	0	2072
82	0	0	2052
83	0	0	2046
84	0	0	2033
85	0	0	2025
86	0	0	2024
87	0	0	2023
88	0	0	2053
89	0	0	2085
90	0	0	2094
91	0	0	2092
92	0	0	2134
93	0	0	2140
94	0	0	2091
95	0	0	2041
96	0	0	2043
97	0	0	2042
98	0	0	2040
99	0	0	2036
100	0	0	2022
101	0	0	2012
102	0	0	2035
103	0	0	2045
104	0	0	2038
105	0	0	2043
106	0	0	2058
107	0	0	2066
108	0	0	2083
109	0	0	2102
110	0	0	2107
111	0	0	2103
112	0	0	2103
113	0	0	2106
114	0	0	2104
115	0	0	2102
116	0	0	2089
117	0	0	2072
118	0	0	2062
119	0	0	2063
120	0	0	2058
121	0	0	2054
122	0	0	2066
123	0	0	2066
124	0	0	2067
125	0	0	2063
126	0	0	2065
127	0	0	2057
0	0	0	2051
1	0	0	2048
2	0	0	2054
3	0	0	2062
4	0	0	2071
5	0	0	2073
6	0	0	2100
7	0	0	2108
8	0	0	2108
9	0	0	2111
10	0	0	2082
11	0	0	2042
12	0	0	2014
13	0	0	1987
14	0	0	1989
15	0	0	2005
16	0	0	2022
17	0	0	2046
18	0	0	2064
19	0	0	2076
20	0	0	2072
21	0	0	2089
22	0	0	2098
23	0	0	2095
24	0	0	2090
25	0	0	2090
26	0	0	2081
27	0	0	2082
28	0	0	2079
29	0	0	2083
30	0	0	2085
31	0	0	2101
32	0	0	2113
33	0	0	2119
34	0	0	2081
35	0	0	2046
36	0	0	2024
37	0	0	2012
38	0	0	2004
39	0	0	2007
40	0	0	2018
41	0	0	2029
42	0	0	2058
43	0	0	2064
44	0	0	2058
45	0	0	2076
46	0	0	2087
47	0	0	2096
48	0	0	2089
49	0	0	2082
50	0	0	2085
51	0	0	2089
52	0	0	2083
53	0	0	2081
54	0	0	2079
55	0	0	2071
56	0	0	2065
57	0	0	2063
58	0	0	2060
59	0	0	2066
60	0	0	2071
61	0	0	2073
62	0	0	2079
63	0	0	2067
64	0	0	2056
65	0	0	2046
66	0	0	2041
67	0	0	2041
68	0	0	2048
69	0	0	2056
70	0	0	2055
71	0	0	2062
72	0	0	2061
73	0	0	2064
74	0	0	2075
75	0	0	2074
76	0	0	2070
77	0	0	2068
78	0	0	2066
79	0	0	2069
80	0	0	2081
81	0	0	2070
82	0	0	2070
83	0	0	2066
84	0	0	2067
85	0	0	2063
86	0	0	2062
87	0	0	2070
88	0	0	2067
89	0	0	2068
90	0	0	2060
91	0	0	2063
92	0	0	2056
93	0	0	2054
94	0	0	2056
95	0	0	2063
96	0	0	2067
97	0	0	2064
98	0	0	2068
99	0	0	2068
100	0	0	2075
101	0	0	2067
102	0	0	2065
103	0	0	2060
104	0	0	2056
105	0	0	2060
106	0	0	2066
107	0	0	2068
108	0	0	2064
109	0	0	2064
110	0	0	2067
111	0	0	2066
112	0	0	2061
113	0	0	2059
114	0	0	2065
115	0	0	2068
116	0	0	2069
117	0	0	2062
118	0	0	2066
119	0	0	2064
120	0	0	2064
121	0	0	2070
122	0	0	2066
123	0	0	2067
124	0	0	2061
125	0	0	2062
126	0	0	2060
127	0	0	2065
0	0	0	2065
1	0	0	2065
2	0	0	2064
3	0	0	2066
4	0	0	2066
5	0	0	2066
6	0	0	2066
7	0	0	2067
8	0	0	2062
9	0	0	2064
10	0	0	2067
11	0	0	2065
12	0	0	2064
13	0	0	2071
14	0	0	2068
15	0	0	2065
16	0	0	2068
17	0	0	2064
18	0	0	2071
19	0	0	2062
20	0	0	2064
21	0	0	2063
22	0	0	2069
23	0	0	2073
24	0	0	2069
25	0	0	2061
26	0	0	2057
27	0	0	2056
28	0	0	2082
29	0	0	2112
30	0	0	2096
31	0	0	2080
32	0	0	2067
33	0	0	2064
34	0	0	2054
35	0	0	2040
36	0	0	2039
37	0	0	2076
38	0	0	2120
39	0	0	2112
40	0	0	2088
41	0	0	2064
42	0	0	2037
43	0	0	2012
44	0	0	1989
45	0	0	1987
46	0	0	2016
47	0	0	2064
48	0	0	2093
49	0	0	2104
50	0	0	2090
51	0	0	2065
52	0	0	2032
53	0	0	2013
54	0	0	2007
55	0	0	2024
56	0	0	2054
57	0	0	2078
58	0	0	2117
59	0	0	2155
60	0	0	2124
61	0	0	2086
62	0	0	2100
63	0	0	2083
64	0	0	2046
65	0	0	2043
66	0	0	2034
67	0	0	2042
68	0	0	2048
69	0	0	2049
70	0	0	2045
71	0	0	2057
72	0	0	2086
73	0	0	2105
74	0	0	2117
75	0	0	2162
76	0	0	2210
77	0	0	2190
78	0	0	2099
79	0	0	2013
80	0	0	1963
81	0	0	1949
82	0	0	1953
83	0	0	1949
84	0	0	1969
85	0	0	2001
86	0	0	2035
87	0	0	2075
88	0	0	2099
89	0	0	2124
90	0	0	2144
91	0	0	2156
92	0	0	2188
93	0	0	2173
94	0	0	2099
95	0	0	2032
96	0	0	1984
97	0	0	1966
98	0	0	1965
99	0	0	1986
100	0	0	2016
101	0	0	2054
102	0	0	2079
103	0	0	2111
104	0	0	2150
105	0	0	2130
106	0	0	2083
107	0	0	2044
108	0	0	2025
109	0	0	2017
110	0	0	2020
111	0	0	2028
112	0	0	2064
113	0	0	2084
114	0	0	2122
115	0	0	2167
116	0	0	2161
117	0	0	2102
118	0	0	2070
119	0	0	2046
120	0	0	2033
121	0	0	2031
122	0	0	2047
123	0	0	2089
124	0	0	2063
125	0	0	2027
126	0	0	2004
127	0	0	1987
0	0	0	2004
1	0	0	2082
2	0	0	2098
3	0	0	2108
4	0	0	2144
5	0	0	2135
6	0	0	2088
7	0	0	2062
8	0	0	2125
9	0	0	2100
10	0	0	2022
11	0	0	1994
12	0	0	1987
13	0	0	1972
14	0	0	1958
15	0	0	1967
16	0	0	2032
17	0	0	2119
18	0	0	2118
19	0	0	2101
20	0	0	2093
21	0	0	2104
22	0	0	2135
23	0	0	2102
24	0	0	2110
25	0	0	2142
26	0	0	2086
27	0	0	2039
28	0	0	2020
29	0	0	2026
30	0	0	2029
31	0	0	2065
32	0	0	2108
33	0	0	2135
34	0	0	2198
35	0	0	2112
36	0	0	2015
37	0	0	1948
38	0	0	1933
39	0	0	1932
40	0	0	1965
41	0	0	2010
42	0	0	2065
43	0	0	2112
44	0	0	2119
45	0	0	2094
46	0	0	2070
47	0	0	2078
48	0	0	2090
49	0	0	2107
50	0	0	2109
51	0	0	2099
52	0	0	2104
53	0	0	2126
54	0	0	2132
55	0	0	2160
56	0	0	2192
57	0	0	2098
58	0	0	2051
59	0	0	1995
60	0	0	1956
61	0	0	1943
62	0	0	1958
63	0	0	1970
64	0	0	2039
65	0	0	2070
66	0	0	2092
67	0	0	2074
68	0	0	2036
69	0	0	2028
70	0	0	2057
71	0	0	2092
72	0	0	2101
73	0	0	2163
74	0	0	2177
75	0	0	2137
76	0	0	2086
77	0	0	2033
78	0	0	1998
79	0	0	1971
80	0	0	2006
81	0	0	2044
82	0	0	2048
83	0	0	2041
84	0	0	2027
85	0	0	2071
86	0	0	2085
87	0	0	2062
88	0	0	2076
89	0	0	2093
90	0	0	2106
91	0	0	2098
92	0	0	2107
93	0	0	2104
94	0	0	2107
95	0	0	2101
96	0	0	2090
97	0	0	2056
98	0	0	2101
99	0	0	2095
100	0	0	2100
101	0	0	2090
102	0	0	2042
103	0	0	2002
104	0	0	1976
105	0	0	1983
106	0	0	1995
107	0	0	2006
108	0	0	2029
109	0	0	2031
110	0	0	2057
111	0	0	2068
112	0	0	2079
113	0	0	2102
114	0	0	2102
115	0	0	2083
116	0	0	2086
117	0	0	2081
118	0	0	2071
119	0	0	2072
120	0	0	2066
121	0	0	2088
122	0	0	2140
123	0	0	2167
124	0	0	2161
125	0	0	2136
126	0	0	2076
127	0	0	2004
0	0	0	1960
1	0	0	1982
2	0	0	1999
3	0	0	2003
4	0	0	1975
5	0	0	1999
6	0	0	2002
7	0	0	2008
8	0	0	2069
9	0	0	2111
10	0	0	2133
11	0	0	2148
12	0	0	2123
13	0	0	2116
14	0	0	2070
15	0	0	2064
16	0	0	2067
17	0	0	2044
18	0	0	2051
19	0	0	2026
20	0	0	2019
21	0	0	2046
22	0	0	2084
23	0	0	2106
24	0	0	2112
25	0	0	2131
26	0	0	2117
27	0	0	2100
28	0	0	2082
29	0	0	2053
30	0	0	2060
31	0	0	2054
32	0	0	2051
33	0	0	2036
34	0	0	2038
35	0	0	2032
36	0	0	2056
37	0	0	2074
38	0	0	2066
39	0	0	2079
40	0	0	2077
41	0	0	2060
42	0	0	2050
43	0	0	2034
44	0	0	2036
45	0	0	2030
46	0	0	2034
47	0	0	2040
48	0	0	2085
49	0	0	2109
50	0	0	2099
51	0	0	2104
52	0	0	2098
53	0	0	2080
54	0	0	2088
55	0	0	2072
56	0	0	2068
57	0	0	2071
58	0	0	2069
59	0	0	2064
60	0	0	2054
61	0	0	2056
62	0	0	2026
63	0	0	2033
64	0	0	2103
65	0	0	2153
66	0	0	2114
67	0	0	2081
68	0	0	2073
69	0	0	2043
70	0	0	2025
71	0	0	1993
72	0	0	1975
73	0	0	2003
74	0	0	2007
75	0	0	2000
76	0	0	2013
77	0	0	2050
78	0	0	2098
79	0	0	2129
80	0	0	2104
81	0	0	2114
82	0	0	2080
83	0	0	2079
84	0	0	2061
85	0	0	2067
86	0	0	2096
87	0	0	2103
88	0	0	2081
89	0	0	2064
90	0	0	2051
91	0	0	2060
92	0	0	2080
93	0	0	2083
94	0	0	2078
95	0	0	2079
96	0	0	2083
97	0	0	2077
98	0	0	2073
99	0	0	2092
100	0	0	2079
101	0	0	2086
102	0	0	2087
103	0	0	2105
104	0	0	2088
105	0	0	2049
106	0	0	2023
107	0	0	2026
108	0	0	2039
109	0	0	2038
110	0	0	2044
111	0	0	2033
112	0	0	2043
113	0	0	2054
114	0	0	2071
115	0	0	2097
116	0	0	2120
117	0	0	2091
118	0	0	2084
119	0	0	2084
120	0	0	2107
121	0	0	2094
122	0	0	2089
123	0	0	2067
124	0	0	2039
125	0	0	2034
126	0	0	2027
127	0	0	2004
0	0	0	1978
1	0	0	2013
2	0	0	2060
3	0	0	2059
4	0	0	2087
5	0	0	2112
6	0	0	2111
7	0	0	2063
8	0	0	2035
9	0	0	2043
10	0	0	2059
11	0	0	2084
12	0	0	2079
13	0	0	2084
14	0	0	2101
15	0	0	2117
16	0	0	2095
17	0	0	2084
18	0	0	2066
19	0	0	2049
20	0	0	2118
21	0	0	2072
22	0	0	2051
23	0	0	2056
24	0	0	2043
25	0	0	2029
26	0	0	2038
27	0	0	2010
28	0	0	1981
29	0	0	2000
30	0	0	2036
31	0	0	2061
32	0	0	2088
33	0	0	2145
34	0	0	2153
35	0	0	2156
36	0	0	2136
37	0	0	2106
38	0	0	2076
39	0	0	2065
40	0	0	2060
41	0	0	2042
42	0	0	2025
43	0	0	2032
44	0	0	2059
45	0	0	2051
46	0	0	2055
47	0	0	2046
48	0	0	2042
49	0	0	2044
50	0	0	2070
51	0	0	2120
52	0	0	2102
53	0	0	2072
54	0	0	2061
55	0	0	2067
56	0	0	2056
57	0	0	2035
58	0	0	2038
59	0	0	2051
60	0	0	2071
61	0	0	2100
62	0	0	2085
63	0	0	2087
64	0	0	2070
65	0	0	2035
66	0	0	2033
67	0	0	2064
68	0	0	2065
69	0	0	2091
70	0	0	2112
71	0	0	2122
72	0	0	2101
73	0	0	2079
74	0	0	2070
75	0	0	2031
76	0	0	2015
77	0	0	1999
78	0	0	1986
79	0	0	1990
80	0	0	2017
81	0	0	2063
82	0	0	2064
83	0	0	2088
84	0	0	2121
85	0	0	2165
86	0	0	2153
87	0	0	2137
88	0	0	2127
89	0	0	2097
90	0	0	2061
91	0	0	2032
92	0	0	1981
93	0	0	1970
94	0	0	1984
95	0	0	2012
96	0	0	2039
97	0	0	2054
98	0	0	2045
99	0	0	2061
100	0	0	2059
101	0	0	2074
102	0	0	2073
103	0	0	2048
104	0	0	2052
105	0	0	2043
106	0	0	2036
107	0	0	2056
108	0	0	2126
109	0	0	2140
110	0	0	2105
111	0	0	2075
112	0	0	2054
113	0	0	2055
114	0	0	2056
115	0	0	2059
116	0	0	2093
117	0	0	2091
118	0	0	2076
119	0	0	2071
120	0	0	2066
121	0	0	2078
122	0	0	2096
123	0	0	2108
124	0	0	2093
125	0	0	2068
126	0	0	2061
127	0	0	2034
0	0	0	1998
1	0	0	1969
2	0	0	1961
3	0	0	1981
4	0	0	2060
5	0	0	2098
6	0	0	2106
7	0	0	2104
8	0	0	2102
9	0	0	2083
10	0	0	2101
11	0	0	2119
12	0	0	2106
13	0	0	2099
14	0	0	2087
15	0	0	2076
16	0	0	2082
17	0	0	2059
18	0	0	2032
19	0	0	2023
20	0	0	1978
21	0	0	1977
22	0	0	2033
23	0	0	2080
24	0	0	2099
25	0	0	2110
26	0	0	2087
27	0	0	2035
28	0	0	2033
29	0	0	2025
30	0	0	2017
31	0	0	2025
32	0	0	2068
33	0	0	2072
34	0	0	2076
35	0	0	2084
36	0	0	2102
37	0	0	2084
38	0	0	2101
39	0	0	2102
40	0	0	2077
41	0	0	2079
42	0	0	2078
43	0	0	2095
44	0	0	2110
45	0	0	2097
46	0	0	2084
47	0	0	2056
48	0	0	2048
49	0	0	2035
50	0	0	2037
51	0	0	2025
52	0	0	2028
53	0	0	2031
54	0	0	2037
55	0	0	2063
56	0	0	2057
57	0	0	2045
58	0	0	2051
59	0	0	2091
60	0	0	2110
61	0	0	2145
62	0	0	2148
63	0	0	2118
64	0	0	2063
65	0	0	2036
66	0	0	2021
67	0	0	2000
68	0	0	1966
69	0	0	1991
70	0	0	1999
71	0	0	2071
72	0	0	2078
73	0	0	2105
74	0	0	2147
75	0	0	2130
76	0	0	2081
77	0	0	2116
78	0	0	2109
79	0	0	2084
80	0	0	2074
81	0	0	2044
82	0	0	2022
83	0	0	2029
84	0	0	2038
85	0	0	2001
86	0	0	2057
87	0	0	2045
88	0	0	2067
89	0	0	2103
90	0	0	2092
91	0	0	2037
92	0	0	2049
93	0	0	2088
94	0	0	2124
95	0	0	2086
96	0	0	2035
97	0	0	2026
98	0	0	2066
99	0	0	2068
100	0	0	2089
101	0	0	2110
102	0	0	2111
103	0	0	2093
104	0	0	2064
105	0	0	2050
106	0	0	2033
107	0	0	2051
108	0	0	2062
109	0	0	2053
110	0	0	2055
111	0	0	2054
112	0	0	2065
113	0	0	2070
114	0	0	2079
115	0	0	2063
116	0	0	2068
117	0	0	2078
118	0	0	2069
119	0	0	2060
120	0	0	2050
121	0	0	2052
122	0	0	2041
123	0	0	2064
124	0	0	2092
125	0	0	2109
126	0	0	2109
127	0	0	2083
0	0	0	2039
1	0	0	2035
2	0	0	2048
3	0	0	2040
4	0	0	2012
5	0	0	2021
6	0	0	2019
7	0	0	2043
8	0	0	2091
9	0	0	2094
10	0	0	2095
11	0	0	2094
12	0	0	2102
13	0	0	2101
14	0	0	2093
15	0	0	2080
16	0	0	2087
17	0	0	2100
18	0	0	2114
19	0	0	2151
20	0	0	2110
21	0	0	2040
22	0	0	1998
23	0	0	1955
24	0	0	1886
25	0	0	1872
26	0	0	1841
27	0	0	1967
28	0	0	2141
29	0	0	2228
30	0	0	2199
31	0	0	2167
32	0	0	2151
33	0	0	2140
34	0	0	2123
35	0	0	2102
36	0	0	2084
37	0	0	2072
38	0	0	2058
39	0	0	2018
40	0	0	2053
41	0	0	2108
42	0	0	2083
43	0	0	2048
44	0	0	2030
45	0	0	2035
46	0	0	2059
47	0	0	2061
48	0	0	2072
49	0	0	2100
50	0	0	2124
51	0	0	2077
52	0	0	2070
53	0	0	2087
54	0	0	2086
55	0	0	2075
56	0	0	2043
57	0	0	2035
58	0	0	2046
59	0	0	2031
60	0	0	2062
61	0	0	2066
62	0	0	2087
63	0	0	2090
64	0	0	2076
65	0	0	2069
66	0	0	2073
67	0	0	2090
68	0	0	2077
69	0	0	2055
70	0	0	2072
71	0	0	2064
72	0	0	2095
73	0	0	2114
74	0	0	2117
75	0	0	2074
76	0	0	1997
77	0	0	1875
78	0	0	1898
79	0	0	2003
80	0	0	2097
81	0	0	2105
82	0	0	2136
83	0	0	2116
84	0	0	2119
85	0	0	2123
86	0	0	2079
87	0	0	2062
88	0	0	2087
89	0	0	2036
90	0	0	2005
91	0	0	2084
92	0	0	2136
93	0	0	2124
94	0	0	2091
95	0	0	2071
96	0	0	2021
97	0	0	1963
98	0	0	1986
99	0	0	2065
100	0	0	2056
101	0	0	2082
102	0	0	2102
103	0	0	2107
104	0	0	2060
105	0	0	2084
106	0	0	2128
107	0	0	2053
108	0	0	2025
109	0	0	2060
110	0	0	2057
111	0	0	2066
112	0	0	2094
113	0	0	2059
114	0	0	2068
115	0	0	2082
116	0	0	2055
117	0	0	2061
118	0	0	2078
119	0	0	2077
120	0	0	2055
121	0	0	2021
122	0	0	2077
123	0	0	2077
124	0	0	2084
125	0	0	2115
126	0	0	2127
127	0	0	2135
0	0	0	2001
1	0	0	1906
2	0	0	1949
3	0	0	2076
4	0	0	2070
5	0	0	2008
6	0	0	2050
7	0	0	2066
8	0	0	2052
9	0	0	2105
10	0	0	2126
11	0	0	2115
12	0	0	2120
13	0	0	2089
14	0	0	2130
15	0	0	2113
16	0	0	2042
17	0	0	2017
18	0	0	2022
19	0	0	1965
20	0	0	2039
21	0	0	2141
22	0	0	2038
23	0	0	2049
24	0	0	2002
25	0	0	1984
26	0	0	2029
27	0	0	2082
28	0	0	2106
29	0	0	2080
30	0	0	2170
31	0	0	2199
32	0	0	2120
33	0	0	2096
34	0	0	2063
35	0	0	2029
36	0	0	2009
37	0	0	2024
38	0	0	2071
39	0	0	2139
40	0	0	2104
41	0	0	2028
42	0	0	2022
43	0	0	1974
44	0	0	1997
45	0	0	2082
46	0	0	2119
47	0	0	2117
48	0	0	2048
49	0	0	2041
50	0	0	1956
51	0	0	1978
52	0	0	2055
53	0	0	2072
54	0	0	2074
55	0	0	2122
56	0	0	2133
57	0	0	2137
58	0	0	2077
59	0	0	2064
60	0	0	2100
61	0	0	2137
62	0	0	2115
63	0	0	2024
64	0	0	2064
65	0	0	2016
66	0	0	1974
67	0	0	1846
68	0	0	1951
69	0	0	2127
70	0	0	2236
71	0	0	2191
72	0	0	2096
73	0	0	2052
74	0	0	2020
75	0	0	2033
76	0	0	2050
77	0	0	2041
78	0	0	2077
79	0	0	2123
80	0	0	2162
81	0	0	2040
82	0	0	2040
83	0	0	2121
84	0	0	2117
85	0	0	2018
86	0	0	1987
87	0	0	1951
88	0	0	1956
89	0	0	1966
90	0	0	2006
91	0	0	2142
92	0	0	2120
93	0	0	2146
94	0	0	2183
95	0	0	2277
96	0	0	2223
97	0	0	2147
98	0	0	1947
99	0	0	1890
100	0	0	1838
101	0	0	1814
102	0	0	1928
103	0	0	2094
104	0	0	2130
105	0	0	2188
106	0	0	2187
107	0	0	2171
108	0	0	2113
109	0	0	2060
110	0	0	2042
111	0	0	2109
112	0	0	2171
113	0	0	2125
114	0	0	2112
115	0	0	1982
116	0	0	1901
117	0	0	1882
118	0	0	2035
119	0	0	1994
120	0	0	2085
121	0	0	2135
122	0	0	2131
123	0	0	2100
124	0	0	2138
125	0	0	2170
126	0	0	2138
127	0	0	2064
0	0	0	2034
1	0	0	1988
2	0	0	1860
3	0	0	1930
4	0	0	2083
5	0	0	2290
6	0	0	2289
7	0	0	2187
8	0	0	2033
9	0	0	1927
10	0	0	1894
11	0	0	1852
12	0	0	1890
13	0	0	2054
14	0	0	2155
15	0	0	2036
16	0	0	1997
17	0	0	2117
18	0	0	2222
19	0	0	2208
20	0	0	2083
21	0	0	2116
22	0	0	2093
23	0	0	2007
24	0	0	1964
25	0	0	2007
26	0	0	2132
27	0	0	2148
28	0	0	2064
29	0	0	2093
30	0	0	2160
31	0	0	2064
32	0	0	2032
33	0	0	2048
34	0	0	2009
35	0	0	2064
36	0	0	2067
37	0	0	2043
38	0	0	2085
39	0	0	2076
40	0	0	2087
41	0	0	2168
42	0	0	2107
43	0	0	2003
44	0	0	1912
45	0	0	1988
46	0	0	1993
47	0	0	2045
48	0	0	2031
49	0	0	2011
50	0	0	2045
51	0	0	2126
52	0	0	2182
53	0	0	2186
54	0	0	2195
55	0	0	2207
56	0	0	2123
57	0	0	2065
58	0	0	2037
59	0	0	1834
60	0	0	1824
61	0	0	1921
62	0	0	2113
63	0	0	2119
64	0	0	2128
65	0	0	2090
66	0	0	2133
67	0	0	2143
68	0	0	2110
69	0	0	2128
70	0	0	2164
71	0	0	2087
72	0	0	1978
73	0	0	1913
74	0	0	1944
75	0	0	2012
76	0	0	2116
77	0	0	2078
78	0	0	2022
79	0	0	2132
80	0	0	2153
81	0	0	2155
82	0	0	2079
83	0	0	1991
84	0	0	2137
85	0	0	2085
86	0	0	1932
87	0	0	1959
88	0	0	2002
89	0	0	1929
90	0	0	1988
91	0	0	2043
92	0	0	2141
93	0	0	2249
94	0	0	2226
95	0	0	2164
96	0	0	2109
97	0	0	2078
98	0	0	2079
99	0	0	1993
100	0	0	2037
101	0	0	1988
102	0	0	1939
103	0	0	2023
104	0	0	2122
105	0	0	2168
106	0	0	2156
107	0	0	2089
108	0	0	2092
109	0	0	2085
110	0	0	2005
111	0	0	1862
112	0	0	2013
113	0	0	2121
114	0	0	2067
115	0	0	2016
116	0	0	1971
117	0	0	2035
118	0	0	2112
119	0	0	2159
120	0	0	2128
121	0	0	2090
122	0	0	2059
123	0	0	2028
124	0	0	2025
125	0	0	2006
126	0	0	2133
127	0	0	2173
0	0	0	2190
1	0	0	2138
2	0	0	1958
3	0	0	1946
4	0	0	2049
5	0	0	1988
6	0	0	1968
7	0	0	2140
8	0	0	2169
9	0	0	2114
10	0	0	2067
11	0	0	1996
12	0	0	1936
13	0	0	1938
14	0	0	2123
15	0	0	2161
16	0	0	2132
17	0	0	2147
18	0	0	2128
19	0	0	2100
20	0	0	2083
21	0	0	2003
22	0	0	2022
23	0	0	2033
24	0	0	2153
25	0	0	2010
26	0	0	1952
27	0	0	1980
28	0	0	1986
29	0	0	2147
30	0	0	2169
31	0	0	2223
32	0	0	2158
33	0	0	2087
34	0	0	1996
35	0	0	1958
36	0	0	1908
37	0	0	1927
38	0	0	2254
39	0	0	2225
40	0	0	2098
41	0	0	1991
42	0	0	1912
43	0	0	1948
44	0	0	2067
45	0	0	2135
46	0	0	2097
47	0	0	2118
48	0	0	2100
49	0	0	2101
50	0	0	2169
51	0	0	2102
52	0	0	1990
53	0	0	1822
54	0	0	1985
55	0	0	2172
56	0	0	2200
57	0	0	2124
58	0	0	2048
59	0	0	2097
60	0	0	2093
61	0	0	2041
62	0	0	1974
63	0	0	2048
64	0	0	2102
65	0	0	2176
66	0	0	2124
67	0	0	2087
68	0	0	2015
69	0	0	1922
70	0	0	1967
71	0	0	2049
72	0	0	1968
73	0	0	2077
74	0	0	2207
75	0	0	2111
76	0	0	2020
77	0	0	2021
78	0	0	2139
79	0	0	2113
80	0	0	2147
81	0	0	2119
82	0	0	2063
83	0	0	1959
84	0	0	1919
85	0	0	1923
86	0	0	2078
87	0	0	2092
88	0	0	2086
89	0	0	2093
90	0	0	2225
91	0	0	2207
92	0	0	2135
93	0	0	2036
94	0	0	1955
95	0	0	1975
96	0	0	2002
97	0	0	2004
98	0	0	2124
99	0	0	2079
100	0	0	2019
101	0	0	1932
102	0	0	2044
103	0	0	2127
104	0	0	2169
105	0	0	2105
106	0	0	2077
107	0	0	2188
108	0	0	2197
109	0	0	2150
110	0	0	2088
111	0	0	2034
112	0	0	2007
113	0	0	1980
114	0	0	2027
115	0	0	2025
116	0	0	2055
117	0	0	1872
118	0	0	1864
119	0	0	2106
120	0	0	2175
121	0	0	2238
122	0	0	2178
123	0	0	2154
124	0	0	2109
125	0	0	2035
126	0	0	2032
127	0	0	2026
0	0	0	2042
1	0	0	1961
2	0	0	2041
3	0	0	2228
4	0	0	2221
5	0	0	2094
6	0	0	1909
7	0	0	1771
8	0	0	1753
9	0	0	2068
10	0	0	2230
11	0	0	2234
12	0	0	2178
13	0	0	2083
14	0	0	2088
15	0	0	2101
16	0	0	2071
17	0	0	2075
18	0	0	2190
19	0	0	2205
20	0	0	2090
21	0	0	1930
22	0	0	1976
23	0	0	1980
24	0	0	1992
25	0	0	2016
26	0	0	2103
27	0	0	2195
28	0	0	2191
29	0	0	1981
30	0	0	1810
31	0	0	2061
32	0	0	2187
33	0	0	2240
34	0	0	2159
35	0	0	2144
36	0	0	2012
37	0	0	1982
38	0	0	1976
39	0	0	1829
40	0	0	2007
41	0	0	2096
42	0	0	2044
43	0	0	1971
44	0	0	2003
45	0	0	2056
46	0	0	2133
47	0	0	2167
48	0	0	2173
49	0	0	2145
50	0	0	2081
51	0	0	2121
52	0	0	2153
53	0	0	2067
54	0	0	1997
55	0	0	2040
56	0	0	2017
57	0	0	2001
58	0	0	1990
59	0	0	2028
60	0	0	2165
61	0	0	2172
62	0	0	2114
63	0	0	2064
64	0	0	2025
65	0	0	1970
66	0	0	1988
67	0	0	2114
68	0	0	2186
69	0	0	2129
70	0	0	2102
71	0	0	2018
72	0	0	1999
73	0	0	2046
74	0	0	2013
75	0	0	1975
76	0	0	1970
77	0	0	2127
78	0	0	2229
79	0	0	2129
80	0	0	2184
81	0	0	2111
82	0	0	1961
83	0	0	1874
84	0	0	1931
85	0	0	1928
86	0	0	1912
87	0	0	2220
88	0	0	2195
89	0	0	2096
90	0	0	1997
91	0	0	2130
92	0	0	2209
93	0	0	2138
94	0	0	2080
95	0	0	2104
96	0	0	2088
97	0	0	2017
98	0	0	1947
99	0	0	1951
100	0	0	2060
101	0	0	2144
102	0	0	2095
103	0	0	2050
104	0	0	2019
105	0	0	2000
106	0	0	2087
107	0	0	2131
108	0	0	2116
109	0	0	2102
110	0	0	2071
111	0	0	2079
112	0	0	2035
113	0	0	2006
114	0	0	2040
115	0	0	2013
116	0	0	2032
117	0	0	2040
118	0	0	2125
119	0	0	2187
120	0	0	2165
121	0	0	2130
122	0	0	2064
123	0	0	1991
124	0	0	1920
125	0	0	1946
126	0	0	1971
127	0	0	2077
0	0	0	2172
1	0	0	2152
2	0	0	2112
3	0	0	2063
4	0	0	2032
5	0	0	2007
6	0	0	2041
7	0	0	2084
8	0	0	2076
9	0	0	2065
10	0	0	2019
11	0	0	2090
12	0	0	2126
13	0	0	2133
14	0	0	2126
15	0	0	2054
16	0	0	2008
17	0	0	2024
18	0	0	2020
19	0	0	2055
20	0	0	2056
21	0	0	2107
22	0	0	2110
23	0	0	2045
24	0	0	1954
25	0	0	1956
26	0	0	2092
27	0	0	2136
28	0	0	2085
29	0	0	2080
30	0	0	2095
31	0	0	2091
32	0	0	2097
33	0	0	2096
34	0	0	2074
35	0	0	2111
36	0	0	2140
37	0	0	2135
38	0	0	2030
39	0	0	1970
40	0	0	1912
41	0	0	1933
42	0	0	1991
43	0	0	2033
44	0	0	2145
45	0	0	2118
46	0	0	2063
47	0	0	2112
48	0	0	2118
49	0	0	2110
50	0	0	2123
51	0	0	2103
52	0	0	2046
53	0	0	2055
54	0	0	2048
55	0	0	2048
56	0	0	2034
57	0	0	2015
58	0	0	2060
59	0	0	2054
60	0	0	2076
61	0	0	2086
62	0	0	2086
63	0	0	2084
64	0	0	2073
65	0	0	2067
66	0	0	2036
67	0	0	2056
68	0	0	2060
69	0	0	2068
70	0	0	2084
71	0	0	2064
72	0	0	2070
73	0	0	2062
74	0	0	2035
75	0	0	2057
76	0	0	2076
77	0	0	2077
78	0	0	2082
79	0	0	2085
80	0	0	2084
81	0	0	2070
82	0	0	2054
83	0	0	2035
84	0	0	2068
85	0	0	2062
86	0	0	2067
87	0	0	2065
88	0	0	2063
89	0	0	2043
90	0	0	2048
91	0	0	2082
92	0	0	2084
93	0	0	2078
94	0	0	2068
95	0	0	2067
96	0	0	2071
97	0	0	2077
98	0	0	2065
99	0	0	2032
100	0	0	2042
101	0	0	2052
102	0	0	2064
103	0	0	2085
104	0	0	2094
105	0	0	2095
106	0	0	2105
107	0	0	2086
108	0	0	2082
109	0	0	2044
110	0	0	1977
111	0	0	2001
112	0	0	2050
113	0	0	2094
114	0	0	2095
115	0	0	2088
116	0	0	2078
117	0	0	2071
118	0	0	2069
119	0	0	2079
120	0	0	2071
121	0	0	2069
122	0	0	2073
123	0	0	2079
124	0	0	2090
125	0	0	2103
126	0	0	2101
127	0	0	2053
0	0	0	2032
1	0	0	1985
2	0	0	2058
3	0	0	2076
4	0	0	2071
5	0	0	2075
6	0	0	2076
7	0	0	2076
8	0	0	2074
9	0	0	2057
10	0	0	2065
11	0	0	2086
12	0	0	2067
13	0	0	2046
14	0	0	2077
15	0	0	2086
16	0	0	2092
17	0	0	2069
18	0	0	2068
19	0	0	2076
20	0	0	2078
21	0	0	2066
22	0	0	2076
23	0	0	2087
24	0	0	2081
25	0	0	2076
26	0	0	2072
27	0	0	2064
28	0	0	2065
29	0	0	2075
30	0	0	2080
31	0	0	2062
32	0	0	2051
33	0	0	2044
34	0	0	2064
35	0	0	2069
36	0	0	2065
37	0	0	2068
38	0	0	2068
39	0	0	2070
40	0	0	2075
41	0	0	2088
42	0	0	2098
43	0	0	2063
44	0	0	2041
45	0	0	2053
46	0	0	2070
47	0	0	2083
48	0	0	2090
49	0	0	2084
50	0	0	2053
51	0	0	2045
52	0	0	2046
53	0	0	2063
54	0	0	2050
55	0	0	2036
56	0	0	2048
57	0	0	2070
58	0	0	2066
59	0	0	2072
60	0	0	2076
61	0	0	2070
62	0	0	2068
63	0	0	2066
64	0	0	2064
65	0	0	2060
66	0	0	2058
67	0	0	2057
68	0	0	2071
69	0	0	2042
70	0	0	2055
71	0	0	2071
72	0	0	2093
73	0	0	2106
74	0	0	2073
75	0	0	2051
76	0	0	2073
77	0	0	2076
78	0	0	2054
79	0	0	2074
80	0	0	2074
81	0	0	2065
82	0	0	2048
83	0	0	2023
84	0	0	2060
85	0	0	2074
86	0	0	2069
87	0	0	2069
88	0	0	2067
89	0	0	2066
90	0	0	2068
91	0	0	2063
92	0	0	2060
93	0	0	2068
94	0	0	2064
95	0	0	2062
96	0	0	2059
97	0	0	2061
98	0	0	2073
99	0	0	2068
100	0	0	2066
101	0	0	2058
102	0	0	2057
103	0	0	2050
104	0	0	2049
105	0	0	2063
106	0	0	2058
107	0	0	2059
108	0	0	2060
109	0	0	2058
110	0	0	2065
111	0	0	2058
112	0	0	2059
113	0	0	2067
114	0	0	2052
115	0	0	2048
116	0	0	2042
117	0	0	2060
118	0	0	2066
119	0	0	2061
120	0	0	2064
121	0	0	2059
122	0	0	2063
123	0	0	2065
124	0	0	2068
125	0	0	2060
126	0	0	2055
127	0	0	2063
0	0	0	2061
1	0	0	2065
2	0	0	2046
3	0	0	2059
4	0	0	2076
5	0	0	2035
6	0	0	2044
7	0	0	2056
8	0	0	2066
9	0	0	2074
10	0	0	2079
11	0	0	2068
12	0	0	2057
13	0	0	2043
14	0	0	2046
15	0	0	2058
16	0	0	2063
17	0	0	2061
18	0	0	2073
19	0	0	2062
20	0	0	2055
21	0	0	2052
22	0	0	2059
23	0	0	2069
24	0	0	2074
25	0	0	2069
26	0	0	2064
27	0	0	2055
28	0	0	2059
29	0	0	2065
30	0	0	2060
31	0	0	2064
32	0	0	2070
33	0	0	2065
34	0	0	2069
35	0	0	2067
36	0	0	2067
37	0	0	2063
38	0	0	2061
39	0	0	2063
40	0	0	2062
41	0	0	2060
42	0	0	2067
43	0	0	2069
44	0	0	2068
45	0	0	2068
46	0	0	2070
47	0	0	2071
48	0	0	2070
49	0	0	2066
50	0	0	2060
51	0	0	2067
52	0	0	2073
53	0	0	2069
54	0	0	2075
55	0	0	2072
56	0	0	2065
57	0	0	2065
58	0	0	2061
59	0	0	2053
60	0	0	2056
61	0	0	2066
62	0	0	2068
63	0	0	2071
64	0	0	2062
65	0	0	2054
66	0	0	2056
67	0	0	2060
68	0	0	2067
69	0	0	2075
70	0	0	2090
71	0	0	2081
72	0	0	2078
73	0	0	2072
74	0	0	2077
75	0	0	2071
76	0	0	2057
77	0	0	2054
78	0	0	2059
79	0	0	2057
80	0	0	2053
81	0	0	2048
82	0	0	2055
83	0	0	2066
84	0	0	2077
85	0	0	2072
86	0	0	2062
87	0	0	2060
88	0	0	2056
89	0	0	2061
90	0	0	2062
91	0	0	2065
92	0	0	2060
93	0	0	2064
94	0	0	2067
95	0	0	2069
96	0	0	2074
97	0	0	2078
98	0	0	2074
99	0	0	2067
100	0	0	2059
101	0	0	2056
102	0	0	2059
103	0	0	2059
104	0	0	2063
105	0	0	2068
106	0	0	2078
107	0	0	2084
108	0	0	2070
109	0	0	2075
110	0	0	2067
111	0	0	2057
112	0	0	2056
113	0	0	2059
114	0	0	2061
115	0	0	2062
116	0	0	2068
117	0	0	2070
118	0	0	2064
119	0	0	2065
120	0	0	2069
121	0	0	2060
122	0	0	2070
123	0	0	2074
124	0	0	2084
125	0	0	2070
126	0	0	2063
127	0	0	2063
0	0	0	2062
1	0	0	2057
2	0	0	2057
3	0	0	2058
4	0	0	2065
5	0	0	2063
6	0	0	2072
7	0	0	2076
8	0	0	2068
9	0	0	2066
10	0	0	2067
11	0	0	2063
12	0	0	2074
13	0	0	2066
14	0	0	2064
15	0	0	2061
16	0	0	2059
17	0	0	2059
18	0	0	2065
19	0	0	2060
20	0	0	2065
21	0	0	2065
22	0	0	2070
23	0	0	2079
24	0	0	2088
25	0	0	2077
26	0	0	2069
27	0	0	2075
28	0	0	2061
29	0	0	2049
30	0	0	2047
31	0	0	2054
32	0	0	2061
33	0	0	2067
34	0	0	2067
35	0	0	2065
36	0	0	2067
37	0	0	2065
38	0	0	2062
39	0	0	2055
40	0	0	2063
41	0	0	2062
42	0	0	2071
43	0	0	2073
44	0	0	2065
45	0	0	2068
46	0	0	2064
47	0	0	2068
48	0	0	2075
49	0	0	2065
50	0	0	2074
51	0	0	2071
52	0	0	2059
53	0	0	2058
54	0	0	2061
55	0	0	2062
56	0	0	2063
57	0	0	2063
58	0	0	2074
59	0	0	2076
60	0	0	2075
61	0	0	2075
62	0	0	2066
63	0	0	2066
64	0	0	2049
65	0	0	2049
66	0	0	2073
67	0	0	2076
68	0	0	2065
69	0	0	2058
70	0	0	2056
71	0	0	2069
72	0	0	2055
73	0	0	2038
74	0	0	2037
75	0	0	2062
76	0	0	2079
77	0	0	2069
78	0	0	2072
79	0	0	2070
80	0	0	2077
81	0	0	2077
82	0	0	2074
83	0	0	2071
84	0	0	2066
85	0	0	2069
86	0	0	2066
87	0	0	2067
88	0	0	2050
89	0	0	2064
90	0	0	2073
91	0	0	2067
92	0	0	2058
93	0	0	2041
94	0	0	2058
95	0	0	2074
96	0	0	2074
97	0	0	2075
98	0	0	2077
99	0	0	2071
100	0	0	2071
101	0	0	2062
102	0	0	2059
103	0	0	2058
104	0	0	2057
105	0	0	2053
106	0	0	2056
107	0	0	2072
108	0	0	2071
109	0	0	2067
110	0	0	2064
111	0	0	2073
112	0	0	2061
113	0	0	2057
114	0	0	2062
115	0	0	2071
116	0	0	2068
117	0	0	2062
118	0	0	2056
119	0	0	2054
120	0	0	2062
121	0	0	2072
122	0	0	2072
123	0	0	2063
124	0	0	2053
125	0	0	2052
126	0	0	2057
127	0	0	2060
0	0	0	2060
1	0	0	2070
2	0	0	2074
3	0	0	2067
4	0	0	2074
5	0	0	2076
6	0	0	2070
7	0	0	2064
8	0	0	2059
9	0	0	2061
10	0	0	2073
11	0	0	2056
12	0	0	2056
13	0	0	2057
14	0	0	2064
15	0	0	2058
16	0	0	2062
17	0	0	2056
18	0	0	2056
19	0	0	2055
20	0	0	2072
21	0	0	2075
22	0	0	2069
23	0	0	2061
24	0	0	2064
25	0	0	2078
26	0	0	2084
27	0	0	2083
28	0	0	2083
29	0	0	2085
30	0	0	2079
31	0	0	2065
32	0	0	2035
33	0	0	2029
34	0	0	2029
35	0	0	2038
36	0	0	2032
37	0	0	2031
38	0	0	2044
39	0	0	2054
40	0	0	2093
41	0	0	2119
42	0	0	2100
43	0	0	2079
44	0	0	2069
45	0	0	2066
46	0	0	2062
47	0	0	2067
48	0	0	2062
49	0	0	2056
50	0	0	2062
51	0	0	2054
52	0	0	2060
53	0	0	2075
54	0	0	2073
55	0	0	2059
56	0	0	2044
57	0	0	2062
58	0	0	2087
59	0	0	2089
60	0	0	2075
61	0	0	2069
62	0	0	2068
63	0	0	2064
64	0	0	2060
65	0	0	2070
66	0	0	2083
67	0	0	2070
68	0	0	2067
69	0	0	2067
70	0	0	2079
71	0	0	2079
72	0	0	2075
73	0	0	2072
74	0	0	2069
75	0	0	2063
76	0	0	2071
77	0	0	2071
78	0	0	2072
79	0	0	2070
80	0	0	2068
81	0	0	2068
82	0	0	2064
83	0	0	2065
84	0	0	2060
85	0	0	2055
86	0	0	2056
87	0	0	2066
88	0	0	2077
89	0	0	2082
90	0	0	2081
91	0	0	2065
92	0	0	2051
93	0	0	2045
94	0	0	2059
95	0	0	2071
96	0	0	2065
97	0	0	2056
98	0	0	2059
99	0	0	2068
100	0	0	2068
101	0	0	2073
102	0	0	2071
103	0	0	2062
104	0	0	2059
105	0	0	2063
106	0	0	2061
107	0	0	2060
108	0	0	2051
109	0	0	2052
110	0	0	2060
111	0	0	2067
112	0	0	2070
113	0	0	2073
114	0	0	2070
115	0	0	2063
116	0	0	2063
117	0	0	2075
118	0	0	2077
119	0	0	2068
120	0	0	2081
121	0	0	2107
122	0	0	2109
123	0	0	2101
124	0	0	2078
125	0	0	2068
126	0	0	2044
127	0	0	2013
0	0	0	1991
1	0	0	1986
2	0	0	2003
3	0	0	2007
4	0	0	2024
5	0	0	2065
6	0	0	2080
7	0	0	2075
8	0	0	2090
9	0	0	2091
10	0	0	2095
11	0	0	2101
12	0	0	2096
13	0	0	2082
14	0	0	2067
15	0	0	2057
16	0	0	2071
17	0	0	2072
18	0	0	2067
19	0	0	2058
20	0	0	2062
21	0	0	2084
22	0	0	2083
23	0	0	2070
24	0	0	2071
25	0	0	2069
26	0	0	2064
27	0	0	2064
28	0	0	2070
29	0	0	2066
30	0	0	2069
31	0	0	2076
32	0	0	2070
33	0	0	2071
34	0	0	2075
35	0	0	2071
36	0	0	2069
37	0	0	2064
38	0	0	2063
39	0	0	2061
40	0	0	2058
41	0	0	2062
42	0	0	2064
43	0	0	2062
44	0	0	2064
45	0	0	2074
46	0	0	2065
47	0	0	2057
48	0	0	2060
49	0	0	2059
50	0	0	2055
51	0	0	2063
52	0	0	2076
53	0	0	2082
54	0	0	2071
55	0	0	2061
56	0	0	2057
57	0	0	2060
58	0	0	2062
59	0	0	2066
60	0	0	2069
61	0	0	2067
62	0	0	2065
63	0	0	2067
64	0	0	2066
65	0	0	2060
66	0	0	2062
67	0	0	2061
68	0	0	2067
69	0	0	2071
70	0	0	2069
71	0	0	2066
72	0	0	2072
73	0	0	2079
74	0	0	2081
75	0	0	2092
76	0	0	2086
77	0	0	2096
78	0	0	2110
79	0	0	2112
80	0	0	2096
81	0	0	2066
82	0	0	2052
83	0	0	2062
84	0	0	2034
85	0	0	2006
86	0	0	1996
87	0	0	2003
88	0	0	2008
89	0	0	2003
90	0	0	2003
91	0	0	1993
92	0	0	1999
93	0	0	2037
94	0	0	2080
95	0	0	2108
96	0	0	2107
97	0	0	2112
98	0	0	2130
99	0	0	2144
100	0	0	2140
101	0	0	2106
102	0	0	2089
103	0	0	2082
104	0	0	2063
105	0	0	2057
106	0	0	2059
107	0	0	2056
108	0	0	2064
109	0	0	2078
110	0	0	2073
111	0	0	2065
112	0	0	2066
113	0	0	2066
114	0	0	2059
115	0	0	2061
116	0	0	2053
117	0	0	2054
118	0	0	2058
119	0	0	2066
120	0	0	2067
121	0	0	2065
122	0	0	2061
123	0	0	2070
124	0	0	2074
125	0	0	2064
126	0	0	2060
127	0	0	2055
0	0	0	2062
1	0	0	2066
2	0	0	2070
3	0	0	2068
4	0	0	2069
5	0	0	2070
6	0	0	2066
7	0	0	2068
8	0	0	2060
9	0	0	2063
10	0	0	2072
11	0	0	2071
12	0	0	2062
13	0	0	2059
14	0	0	2063
15	0	0	2057
16	0	0	2066
17	0	0	2065
18	0	0	2062
19	0	0	2062
20	0	0	2071
21	0	0	2063
22	0	0	2086
23	0	0	2092
24	0	0	2089
25	0	0	2092
26	0	0	2119
27	0	0	2130
28	0	0	2079
29	0	0	2025
30	0	0	1989
31	0	0	1972
32	0	0	1961
33	0	0	1967
34	0	0	1994
35	0	0	2016
36	0	0	2041
37	0	0	2064
38	0	0	2090
39	0	0	2099
40	0	0	2117
41	0	0	2148
42	0	0	2120
43	0	0	2134
44	0	0	2139
45	0	0	2119
46	0	0	2094
47	0	0	2068
48	0	0	2052
49	0	0	2030
50	0	0	2019
51	0	0	2008
52	0	0	2005
53	0	0	2025
54	0	0	2046
55	0	0	2042
56	0	0	2051
57	0	0	2065
58	0	0	2076
59	0	0	2087
60	0	0	2086
61	0	0	2096
62	0	0	2097
63	0	0	2086
64	0	0	2090
65	0	0	2097
66	0	0	2090
67	0	0	2098
68	0	0	2085
69	0	0	2064
70	0	0	2048
71	0	0	2049
72	0	0	2048
73	0	0	2046
74	0	0	2046
75	0	0	2058
76	0	0	2058
77	0	0	2064
78	0	0	2080
79	0	0	2077
80	0	0	2062
81	0	0	2087
82	0	0	2074
83	0	0	2052
84	0	0	2048
85	0	0	2045
86	0	0	2033
87	0	0	2042
88	0	0	2054
89	0	0	2059
90	0	0	2068
91	0	0	2087
92	0	0	2079
93	0	0	2084
94	0	0	2093
95	0	0	2098
96	0	0	2086
97	0	0	2081
98	0	0	2117
99	0	0	2102
100	0	0	2079
101	0	0	2074
102	0	0	2059
103	0	0	2052
104	0	0	2025
105	0	0	2009
106	0	0	2010
107	0	0	2013
108	0	0	2020
109	0	0	2023
110	0	0	2035
111	0	0	2060
112	0	0	2070
113	0	0	2074
114	0	0	2089
115	0	0	2114
116	0	0	2108
117	0	0	2093
118	0	0	2092
119	0	0	2076
120	0	0	2069
121	0	0	2055
122	0	0	2044
123	0	0	2046
124	0	0	2046
125	0	0	2061
126	0	0	2068
127	0	0	2069
0	0	0	2073
1	0	0	2089
2	0	0	2091
3	0	0	2070
4	0	0	2045
5	0	0	2051
6	0	0	2061
7	0	0	2074
8	0	0	2074
9	0	0	2071
10	0	0	2071
11	0	0	2075
12	0	0	2078
13	0	0	2084
14	0	0	2098
15	0	0	2098
16	0	0	2077
17	0	0	2069
18	0	0	2057
19	0	0	2036
20	0	0	2018
21	0	0	2012
22	0	0	2006
23	0	0	2021
24	0	0	2043
25	0	0	2063
26	0	0	2068
27	0	0	2077
28	0	0	2089
29	0	0	2112
30	0	0	2122
31	0	0	2105
32	0	0	2082
33	0	0	2068
34	0	0	2081
35	0	0	2066
36	0	0	2050
37	0	0	2041
38	0	0	2042
39	0	0	2040
40	0	0	2035
41	0	0	2037
42	0	0	2040
43	0	0	2059
44	0	0	2073
45	0	0	2075
46	0	0	2090
47	0	0	2097
48	0	0	2086
49	0	0	2077
50	0	0	2067
51	0	0	2073
52	0	0	2077
53	0	0	2084
54	0	0	2079
55	0	0	2071
56	0	0	2065
57	0	0	2060
58	0	0	2058
59	0	0	2058
60	0	0	2054
61	0	0	2060
62	0	0	2054
63	0	0	2056
64	0	0	2056
65	0	0	2059
66	0	0	2071
67	0	0	2069
68	0	0	2075
69	0	0	2074
70	0	0	2075
71	0	0	2069
72	0	0	2068
73	0	0	2064
74	0	0	2068
75	0	0	2069
76	0	0	2059
77	0	0	2048
78	0	0	2040
79	0	0	2048
80	0	0	2060
81	0	0	2061
82	0	0	2065
83	0	0	2075
84	0	0	2077
85	0	0	2072
86	0	0	2063
87	0	0	2062
88	0	0	2061
89	0	0	2062
90	0	0	2068
91	0	0	2071
92	0	0	2077
93	0	0	2079
94	0	0	2073
95	0	0	2081
96	0	0	2079
97	0	0	2069
98	0	0	2056
99	0	0	2062
100	0	0	2071
101	0	0	2073
102	0	0	2068
103	0	0	2055
104	0	0	2043
105	0	0	2039
106	0	0	2036
107	0	0	2046
108	0	0	2048
109	0	0	2051
110	0	0	2063
111	0	0	2067
112	0	0	2065
113	0	0	2065
114	0	0	2072
115	0	0	2086
116	0	0	2079
117	0	0	2071
118	0	0	2071
119	0	0	2072
120	0	0	2070
121	0	0	2080
122	0	0	2071
123	0	0	2072
124	0	0	2068
125	0	0	2066
126	0	0	2069
127	0	0	2070
0	0	0	2090
1	0	0	2080
2	0	0	2056
3	0	0	2044
4	0	0	2036
5	0	0	2026
6	0	0	2032
7	0	0	2042
8	0	0	2057
9	0	0	2074
10	0	0	2089
11	0	0	2080
12	0	0	2084
13	0	0	2084
14	0	0	2081
15	0	0	2073
16	0	0	2076
17	0	0	2078
18	0	0	2080
19	0	0	2082
20	0	0	2086
21	0	0	2078
22	0	0	2076
23	0	0	2062
24	0	0	2054
25	0	0	2058
26	0	0	2057
27	0	0	2058
28	0	0	2068
29	0	0	2079
30	0	0	2085
31	0	0	2067
32	0	0	2055
33	0	0	2046
34	0	0	2035
35	0	0	2032
36	0	0	2035
37	0	0	2025
38	0	0	2017
39	0	0	2026
40	0	0	2031
41	0	0	2056
42	0	0	2058
43	0	0	2062
44	0	0	2087
45	0	0	2099
46	0	0	2113
47	0	0	2120
48	0	0	2116
49	0	0	2102
50	0	0	2100
51	0	0	2089
52	0	0	2075
53	0	0	2065
54	0	0	2063
55	0	0	2064
56	0	0	2092
57	0	0	2117
58	0	0	2100
59	0	0	2089
60	0	0	2088
61	0	0	2069
62	0	0	2030
63	0	0	2000
64	0	0	2023
65	0	0	2052
66	0	0	2032
67	0	0	2008
68	0	0	2011
69	0	0	2017
70	0	0	2014
71	0	0	2020
72	0	0	2035
73	0	0	2071
74	0	0	2097
75	0	0	2105
76	0	0	2103
77	0	0	2106
78	0	0	2110
79	0	0	2099
80	0	0	2076
81	0	0	2073
82	0	0	2066
83	0	0	2070
84	0	0	2074
85	0	0	2066
86	0	0	2073
87	0	0	2082
88	0	0	2083
89	0	0	2065
90	0	0	2060
91	0	0	2064
92	0	0	2063
93	0	0	2067
94	0	0	2064
95	0	0	2072
96	0	0	2069
97	0	0	2069
98	0	0	2073
99	0	0	2069
100	0	0	2058
101	0	0	2059
102	0	0	2063
103	0	0	2068
104	0	0	2063
105	0	0	2062
106	0	0	2051
107	0	0	2048
108	0	0	2054
109	0	0	2053
110	0	0	2051
111	0	0	2055
112	0	0	2066
113	0	0	2075
114	0	0	2068
115	0	0	2064
116	0	0	2059
117	0	0	2072
118	0	0	2073
119	0	0	2078
120	0	0	2076
121	0	0	2069
122	0	0	2067
123	0	0	2077
124	0	0	2078
125	0	0	2080
126	0	0	2075
127	0	0	2068
0	0	0	2065
1	0	0	2060
2	0	0	2054
3	0	0	2055
4	0	0	2061
5	0	0	2062
6	0	0	2060
7	0	0	2065
8	0	0	2069
9	0	0	2075
10	0	0	2072
11	0	0	2072
12	0	0	2071
13	0	0	2068
14	0	0	2069
15	0	0	2070
16	0	0	2068
17	0	0	2072
18	0	0	2070
19	0	0	2062
20	0	0	2063
21	0	0	2072
22	0	0	2104
23	0	0	2089
24	0	0	2062
25	0	0	2054
26	0	0	2039
27	0	0	2028
28	0	0	2032
29	0	0	2030
30	0	0	2034
31	0	0	2051
32	0	0	2068
33	0	0	2077
34	0	0	2085
35	0	0	2101
36	0	0	2088
37	0	0	2066
38	0	0	2051
39	0	0	2063
40	0	0	2067
41	0	0	2080
42	0	0	2074
43	0	0	2070
44	0	0	2072
45	0	0	2076
46	0	0	2072
47	0	0	2064
48	0	0	2066
49	0	0	2065
50	0	0	2055
51	0	0	2045
52	0	0	2054
53	0	0	2057
54	0	0	2061
55	0	0	2071
56	0	0	2080
57	0	0	2084
58	0	0	2082
59	0	0	2082
60	0	0	2070
61	0	0	2057
62	0	0	2057
63	0	0	2067
64	0	0	2087
65	0	0	2088
66	0	0	2079
67	0	0	2078
68	0	0	2069
69	0	0	2051
70	0	0	2046
71	0	0	2039
72	0	0	2038
73	0	0	2049
74	0	0	2056
75	0	0	2061
76	0	0	2058
77	0	0	2059
78	0	0	2069
79	0	0	2068
80	0	0	2062
81	0	0	2070
82	0	0	2070
83	0	0	2065
84	0	0	2068
85	0	0	2079
86	0	0	2091
87	0	0	2086
88	0	0	2076
89	0	0	2071
90	0	0	2066
91	0	0	2063
92	0	0	2062
93	0	0	2061
94	0	0	2064
95	0	0	2066
96	0	0	2065
97	0	0	2065
98	0	0	2065
99	0	0	2070
100	0	0	2073
101	0	0	2067
102	0	0	2065
103	0	0	2069
104	0	0	2083
105	0	0	2084
106	0	0	2095
107	0	0	2097
108	0	0	2069
109	0	0	2040
110	0	0	2023
111	0	0	2007
112	0	0	2000
113	0	0	2000
114	0	0	2021
115	0	0	2054
116	0	0	2095
117	0	0	2113
118	0	0	2114
119	0	0	2112
120	0	0	2121
121	0	0	2091
122	0	0	2070
123	0	0	2062
124	0	0	2060
125	0	0	2053
126	0	0	2055
127	0	0	2054
0	0	0	2051
1	0	0	2056
2	0	0	2069
3	0	0	2059
4	0	0	2060
5	0	0	2056
6	0	0	2058
7	0	0	2060
8	0	0	2067
9	0	0	2077
10	0	0	2068
11	0	0	2070
12	0	0	2066
13	0	0	2059
14	0	0	2066
15	0	0	2061
16	0	0	2075
17	0	0	2086
18	0	0	2096
19	0	0	2095
20	0	0	2082
21	0	0	2067
22	0	0	2062
23	0	0	2060
24	0	0	2058
25	0	0	2059
26	0	0	2060
27	0	0	2062
28	0	0	2064
29	0	0	2056
30	0	0	2054
31	0	0	2048
32	0	0	2051
33	0	0	2056
34	0	0	2062
35	0	0	2076
36	0	0	2095
37	0	0	2092
38	0	0	2081
39	0	0	2075
40	0	0	2065
41	0	0	2042
42	0	0	2036
43	0	0	2037
44	0	0	2054
45	0	0	2058
46	0	0	2094
47	0	0	2100
48	0	0	2088
49	0	0	2067
50	0	0	2060
51	0	0	2068
52	0	0	2058
53	0	0	2050
54	0	0	2049
55	0	0	2061
56	0	0	2072
57	0	0	2078
58	0	0	2082
59	0	0	2083
60	0	0	2077
61	0	0	2067
62	0	0	2073
63	0	0	2100
64	0	0	2093
65	0	0	2065
66	0	0	2050
67	0	0	2032
68	0	0	2022
69	0	0	2024
70	0	0	2053
71	0	0	2062
72	0	0	2050
73	0	0	2059
74	0	0	2057
75	0	0	2055
76	0	0	2066
77	0	0	2073
78	0	0	2071
79	0	0	2067
80	0	0	2069
81	0	0	2078
82	0	0	2084
83	0	0	2093
84	0	0	2094
85	0	0	2094
86	0	0	2087
87	0	0	2080
88	0	0	2078
89	0	0	2074
90	0	0	2084
91	0	0	2069
92	0	0	2053
93	0	0	2046
94	0	0	2033
95	0	0	2031
96	0	0	2044
97	0	0	2056
98	0	0	2064
99	0	0	2074
100	0	0	2076
101	0	0	2073
102	0	0	2069
103	0	0	2064
104	0	0	2062
105	0	0	2070
106	0	0	2078
107	0	0	2079
108	0	0	2077
109	0	0	2065
110	0	0	2060
111	0	0	2060
112	0	0	2058
113	0	0	2058
114	0	0	2069
115	0	0	2087
116	0	0	2083
117	0	0	2065
118	0	0	2061
119	0	0	2060
120	0	0	2070
121	0	0	2086
122	0	0	2064
123	0	0	2052
124	0	0	2044
125	0	0	2034
126	0	0	2039
127	0	0	2041
0	0	0	2048
1	0	0	2044
2	0	0	2053
3	0	0	2070
4	0	0	2088
5	0	0	2082
6	0	0	2089
7	0	0	2105
8	0	0	2097
9	0	0	2080
10	0	0	2073
11	0	0	2068
12	0	0	2074
13	0	0	2081
14	0	0	2096
15	0	0	2080
16	0	0	2057
17	0	0	2040
18	0	0	2023
19	0	0	2019
20	0	0	2030
21	0	0	2032
22	0	0	2039
23	0	0	2083
24	0	0	2101
25	0	0	2077
26	0	0	2084
27	0	0	2084
28	0	0	2068
29	0	0	2061
30	0	0	2055
31	0	0	2053
32	0	0	2049
33	0	0	2057
34	0	0	2068
35	0	0	2065
36	0	0	2069
37	0	0	2076
38	0	0	2072
39	0	0	2060
40	0	0	2062
41	0	0	2073
42	0	0	2083
43	0	0	2083
44	0	0	2080
45	0	0	2081
46	0	0	2091
47	0	0	2077
48	0	0	2064
49	0	0	2046
50	0	0	2042
51	0	0	2038
52	0	0	2054
53	0	0	2048
54	0	0	2046
55	0	0	2055
56	0	0	2068
57	0	0	2076
58	0	0	2081
59	0	0	2097
60	0	0	2091
61	0	0	2074
62	0	0	2059
63	0	0	2058
64	0	0	2054
65	0	0	2049
66	0	0	2052
67	0	0	2059
68	0	0	2054
69	0	0	2068
70	0	0	2105
71	0	0	2104
72	0	0	2069
73	0	0	2056
74	0	0	2058
75	0	0	2041
76	0	0	2041
77	0	0	2035
78	0	0	2055
79	0	0	2048
80	0	0	2053
81	0	0	2061
82	0	0	2062
83	0	0	2062
84	0	0	2064
85	0	0	2079
86	0	0	2081
87	0	0	2070
88	0	0	2077
89	0	0	2067
90	0	0	2069
91	0	0	2071
92	0	0	2073
93	0	0	2085
94	0	0	2083
95	0	0	2076
96	0	0	2063
97	0	0	2055
98	0	0	2056
99	0	0	2075
100	0	0	2082
101	0	0	2065
102	0	0	2059
103	0	0	2059
104	0	0	2050
105	0	0	2054
106	0	0	2068
107	0	0	2072
108	0	0	2069
109	0	0	2055
110	0	0	2043
111	0	0	2038
112	0	0	2044
113	0	0	2041
114	0	0	2041
115	0	0	2049
116	0	0	2067
117	0	0	2071
118	0	0	2076
119	0	0	2079
120	0	0	2082
121	0	0	2086
122	0	0	2097
123	0	0	2107
124	0	0	2088
125	0	0	2076
126	0	0	2069
127	0	0	2061
0	0	0	2050
1	0	0	2056
2	0	0	2059
3	0	0	2073
4	0	0	2081
5	0	0	2080
6	0	0	2073
7	0	0	2073
8	0	0	2086
9	0	0	2078
10	0	0	2071
11	0	0	2061
12	0	0	2050
13	0	0	2017
14	0	0	1991
15	0	0	1998
16	0	0	2007
17	0	0	2021
18	0	0	2041
19	0	0	2052
20	0	0	2070
21	0	0	2074
22	0	0	2089
23	0	0	2108
24	0	0	2100
25	0	0	2080
26	0	0	2078
27	0	0	2101
28	0	0	2118
29	0	0	2116
30	0	0	2101
31	0	0	2090
32	0	0	2074
33	0	0	2070
34	0	0	2069
35	0	0	2066
36	0	0	2060
37	0	0	2048
38	0	0	2059
39	0	0	2046
40	0	0	2049
41	0	0	2064
42	0	0	2073
43	0	0	2068
44	0	0	2067
45	0	0	2066
46	0	0	2072
47	0	0	2080
48	0	0	2069
49	0	0	2055
50	0	0	2065
51	0	0	2081
52	0	0	2061
53	0	0	2039
54	0	0	2031
55	0	0	2028
56	0	0	2025
57	0	0	2035
58	0	0	2051
59	0	0	2066
60	0	0	2077
61	0	0	2080
62	0	0	2065
63	0	0	2059
64	0	0	2086
65	0	0	2095
66	0	0	2087
67	0	0	2084
68	0	0	2086
69	0	0	2083
70	0	0	2079
71	0	0	2080
72	0	0	2069
73	0	0	2071
74	0	0	2070
75	0	0	2070
76	0	0	2068
77	0	0	2073
78	0	0	2082
79	0	0	2084
80	0	0	2094
81	0	0	2074
82	0	0	2056
83	0	0	2039
84	0	0	2036
85	0	0	2033
86	0	0	2045
87	0	0	2058
88	0	0	2064
89	0	0	2061
90	0	0	2052
91	0	0	2067
92	0	0	2078
93	0	0	2075
94	0	0	2088
95	0	0	2078
96	0	0	2083
97	0	0	2076
98	0	0	2072
99	0	0	2054
100	0	0	2034
101	0	0	2032
102	0	0	2033
103	0	0	2033
104	0	0	2036
105	0	0	2058
106	0	0	2046
107	0	0	2057
108	0	0	2086
109	0	0	2097
110	0	0	2089
111	0	0	2090
112	0	0	2082
113	0	0	2068
114	0	0	2062
115	0	0	2080
116	0	0	2073
117	0	0	2065
118	0	0	2062
119	0	0	2054
120	0	0	2045
121	0	0	2045
122	0	0	2061
123	0	0	2062
124	0	0	2065
125	0	0	2072
126	0	0	2081
127	0	0	2094
0	0	0	2116
1	0	0	2123
2	0	0	2092
3	0	0	2066
4	0	0	2053
5	0	0	2031
6	0	0	2006
7	0	0	1992
8	0	0	1995
9	0	0	2016
10	0	0	2029
11	0	0	2046
12	0	0	2062
13	0	0	2081
14	0	0	2087
15	0	0	2089
16	0	0	2084
17	0	0	2077
18	0	0	2080
19	0	0	2085
20	0	0	2075
21	0	0	2075
22	0	0	2073
23	0	0	2089
24	0	0	2096
25	0	0	2080
26	0	0	2069
27	0	0	2056
28	0	0	2049
29	0	0	2043
30	0	0	2044
31	0	0	2051
32	0	0	2058
33	0	0	2059
34	0	0	2071
35	0	0	2065
36	0	0	2065
37	0	0	2057
38	0	0	2054
39	0	0	2050
40	0	0	2049
41	0	0	2045
42	0	0	2051
43	0	0	2050
44	0	0	2060
45	0	0	2066
46	0	0	2079
47	0	0	2092
48	0	0	2085
49	0	0	2075
50	0	0	2053
51	0	0	2039
52	0	0	2044
53	0	0	2051
54	0	0	2050
55	0	0	2052
56	0	0	2057
57	0	0	2067
58	0	0	2073
59	0	0	2089
60	0	0	2091
61	0	0	2089
62	0	0	2086
63	0	0	2079
64	0	0	2071
65	0	0	2055
66	0	0	2052
67	0	0	2054
68	0	0	2053
69	0	0	2050
70	0	0	2050
71	0	0	2049
72	0	0	2048
73	0	0	2058
74	0	0	2072
75	0	0	2083
76	0	0	2082
77	0	0	2084
78	0	0	2092
79	0	0	2089
80	0	0	2098
81	0	0	2109
82	0	0	2110
83	0	0	2090
84	0	0	2065
85	0	0	2033
86	0	0	2015
87	0	0	2027
88	0	0	2037
89	0	0	2058
90	0	0	2070
91	0	0	2060
92	0	0	2064
93	0	0	2048
94	0	0	2035
95	0	0	2024
96	0	0	2035
97	0	0	2041
98	0	0	2050
99	0	0	2085
100	0	0	2102
101	0	0	2098
102	0	0	2099
103	0	0	2103
104	0	0	2096
105	0	0	2085
106	0	0	2084
107	0	0	2088
108	0	0	2096
109	0	0	2080
110	0	0	2068
111	0	0	2064
112	0	0	2061
113	0	0	2058
114	0	0	2054
115	0	0	2067
116	0	0	2063
117	0	0	2064
118	0	0	2080
119	0	0	2063
120	0	0	2043
121	0	0	2035
122	0	0	2024
123	0	0	2039
124	0	0	2061
125	0	0	2076
126	0	0	2087
127	0	0	2100
0	0	0	2092
1	0	0	2081
2	0	0	2063
3	0	0	2045
4	0	0	2054
5	0	0	2060
6	0	0	2076
7	0	0	2067
8	0	0	2057
9	0	0	2061
10	0	0	2051
11	0	0	2047
12	0	0	2038
13	0	0	2031
14	0	0	2027
15	0	0	2032
16	0	0	2039
17	0	0	2078
18	0	0	2102
19	0	0	2091
20	0	0	2080
21	0	0	2065
22	0	0	2055
23	0	0	2043
24	0	0	2049
25	0	0	2060
26	0	0	2082
27	0	0	2074
28	0	0	2065
29	0	0	2062
30	0	0	2058
31	0	0	2055
32	0	0	2060
33	0	0	2062
34	0	0	2069
35	0	0	2061
36	0	0	2058
37	0	0	2065
38	0	0	2072
39	0	0	2077
40	0	0	2072
41	0	0	2081
42	0	0	2072
43	0	0	2054
44	0	0	2055
45	0	0	2054
46	0	0	2036
47	0	0	2048
48	0	0	2058
49	0	0	2049
50	0	0	2035
51	0	0	2040
52	0	0	2042
53	0	0	2041
54	0	0	2067
55	0	0	2067
56	0	0	2056
57	0	0	2054
58	0	0	2018
59	0	0	2050
60	0	0	2078
61	0	0	2081
62	0	0	2098
63	0	0	2092
64	0	0	2084
65	0	0	2066
66	0	0	2063
67	0	0	2074
68	0	0	2073
69	0	0	2076
70	0	0	2068
71	0	0	2055
72	0	0	2077
73	0	0	2100
74	0	0	2108
75	0	0	2100
76	0	0	2093
77	0	0	2082
78	0	0	2072
79	0	0	2073
80	0	0	2066
81	0	0	2069
82	0	0	2075
83	0	0	2070
84	0	0	2065
85	0	0	2080
86	0	0	2074
87	0	0	2063
88	0	0	2058
89	0	0	2074
90	0	0	2101
91	0	0	2085
92	0	0	2073
93	0	0	2051
94	0	0	2037
95	0	0	2025
96	0	0	2010
97	0	0	2003
98	0	0	2007
99	0	0	2022
100	0	0	2030
101	0	0	2051
102	0	0	2074
103	0	0	2078
104	0	0	2076
105	0	0	2066
106	0	0	2081
107	0	0	2075
108	0	0	2083
109	0	0	2091
110	0	0	2086
111	0	0	2086
112	0	0	2080
113	0	0	2078
114	0	0	2088
115	0	0	2097
116	0	0	2098
117	0	0	2088
118	0	0	2083
119	0	0	2072
120	0	0	2062
121	0	0	2092
122	0	0	2073
123	0	0	2052
124	0	0	2048
125	0	0	2031
126	0	0	2030
127	0	0	2035
0	0	0	2041
1	0	0	2054
2	0	0	2054
3	0	0	2061
4	0	0	2067
5	0	0	2075
6	0	0	2079
7	0	0	2088
8	0	0	2084
9	0	0	2073
10	0	0	2073
11	0	0	2092
12	0	0	2091
13	0	0	2082
14	0	0	2064
15	0	0	2062
16	0	0	2057
17	0	0	2058
18	0	0	2059
19	0	0	2068
20	0	0	2074
21	0	0	2082
22	0	0	2095
23	0	0	2089
24	0	0	2089
25	0	0	2069
26	0	0	2055
27	0	0	2038
28	0	0	2032
29	0	0	2055
30	0	0	2073
31	0	0	2067
32	0	0	2076
33	0	0	2087
34	0	0	2123
35	0	0	2101
36	0	0	2049
37	0	0	2025
38	0	0	2025
39	0	0	2032
40	0	0	2040
41	0	0	2045
42	0	0	2056
43	0	0	2063
44	0	0	2075
45	0	0	2079
46	0	0	2080
47	0	0	2075
48	0	0	2074
49	0	0	2076
50	0	0	2074
51	0	0	2065
52	0	0	2060
53	0	0	2061
54	0	0	2065
55	0	0	2061
56	0	0	2069
57	0	0	2079
58	0	0	2080
59	0	0	2072
60	0	0	2081
61	0	0	2076
62	0	0	2059
63	0	0	2043
64	0	0	2045
65	0	0	2033
66	0	0	2033
67	0	0	2048
68	0	0	2062
69	0	0	2074
70	0	0	2092
71	0	0	2103
72	0	0	2103
73	0	0	2081
74	0	0	2082
75	0	0	2069
76	0	0	2072
77	0	0	2081
78	0	0	2071
79	0	0	2071
80	0	0	2065
81	0	0	2066
82	0	0	2063
83	0	0	2054
84	0	0	2052
85	0	0	2050
86	0	0	2050
87	0	0	2051
88	0	0	2071
89	0	0	2088
90	0	0	2084
91	0	0	2072
92	0	0	2083
93	0	0	2086
94	0	0	2075
95	0	0	2068
96	0	0	2059
97	0	0	2052
98	0	0	2062
99	0	0	2068
100	0	0	2069
101	0	0	2065
102	0	0	2051
103	0	0	2043
104	0	0	2080
105	0	0	2086
106	0	0	2082
107	0	0	2097
108	0	0	2069
109	0	0	2067
110	0	0	2055
111	0	0	2033
112	0	0	2019
113	0	0	2013
114	0	0	2021
115	0	0	2048
116	0	0	2072
117	0	0	2095
118	0	0	2094
119	0	0	2095
120	0	0	2092
121	0	0	2095
122	0	0	2062
123	0	0	2039
124	0	0	2039
125	0	0	2066
126	0	0	2072
127	0	0	2063
0	0	0	2071
1	0	0	2089
2	0	0	2088
3	0	0	2073
4	0	0	2065
5	0	0	2075
6	0	0	2063
7	0	0	2052
8	0	0	2037
9	0	0	2045
10	0	0	2035
11	0	0	2041
12	0	0	2043
13	0	0	2056
14	0	0	2060
15	0	0	2060
16	0	0	2058
17	0	0	2069
18	0	0	2080
19	0	0	2085
20	0	0	2091
21	0	0	2104
22	0	0	2125
23	0	0	2114
24	0	0	2078
25	0	0	2060
26	0	0	2060
27	0	0	2064
28	0	0	2050
29	0	0	2040
30	0	0	2039
31	0	0	2036
32	0	0	2028
33	0	0	2030
34	0	0	2037
35	0	0	2055
36	0	0	2060
37	0	0	2067
38	0	0	2073
39	0	0	2064
40	0	0	2075
41	0	0	2093
42	0	0	2117
43	0	0	2116
44	0	0	2103
45	0	0	2077
46	0	0	2046
47	0	0	2029
48	0	0	2031
49	0	0	2031
50	0	0	2044
51	0	0	2060
52	0	0	2063
53	0	0	2066
54	0	0	2065
55	0	0	2075
56	0	0	2083
57	0	0	2086
58	0	0	2089
59	0	0	2095
60	0	0	2098
61	0	0	2090
62	0	0	2052
63	0	0	2049
64	0	0	2042
65	0	0	2035
66	0	0	2049
67	0	0	2052
68	0	0	2051
69	0	0	2035
70	0	0	2038
71	0	0	2040
72	0	0	2043
73	0	0	2061
74	0	0	2061
75	0	0	2063
76	0	0	2054
77	0	0	2070
78	0	0	2079
79	0	0	2069
80	0	0	2076
81	0	0	2099
82	0	0	2107
83	0	0	2097
84	0	0	2099
85	0	0	2124
86	0	0	2126
87	0	0	2101
88	0	0	2084
89	0	0	2063
90	0	0	2039
91	0	0	2013
92	0	0	1996
93	0	0	1994
94	0	0	1996
95	0	0	2019
96	0	0	2039
97	0	0	2059
98	0	0	2069
99	0	0	2065
100	0	0	2072
101	0	0	2079
102	0	0	2079
103	0	0	2078
104	0	0	2082
105	0	0	2077
106	0	0	2079
107	0	0	2086
108	0	0	2084
109	0	0	2076
110	0	0	2077
111	0	0	2084
112	0	0	2078
113	0	0	2101
114	0	0	2100
115	0	0	2079
116	0	0	2071
117	0	0	2070
118	0	0	2048
119	0	0	2048
120	0	0	2066
121	0	0	2051
122	0	0	2033
123	0	0	2035
124	0	0	2034
125	0	0	2043
126	0	0	2066
127	0	0	2083
0	0	0	2078
1	0	0	2065
2	0	0	2062
3	0	0	2046
4	0	0	2043
5	0	0	2041
6	0	0	2045
7	0	0	2051
8	0	0	2045
9	0	0	2050
10	0	0	2059
11	0	0	2070
12	0	0	2071
13	0	0	2076
14	0	0	2080
15	0	0	2086
16	0	0	2086
17	0	0	2086
18	0	0	2087
19	0	0	2094
20	0	0	2085
21	0	0	2077
22	0	0	2072
23	0	0	2090
24	0	0	2099
25	0	0	2118
26	0	0	2117
27	0	0	2076
28	0	0	2035
29	0	0	2018
30	0	0	2016
31	0	0	2024
32	0	0	2052
33	0	0	2075
34	0	0	2072
35	0	0	2054
36	0	0	2038
37	0	0	2021
38	0	0	2005
39	0	0	1999
40	0	0	2023
41	0	0	2056
42	0	0	2078
43	0	0	2094
44	0	0	2114
45	0	0	2146
46	0	0	2149
47	0	0	2117
48	0	0	2082
49	0	0	2049
50	0	0	2032
51	0	0	2034
52	0	0	2034
53	0	0	2036
54	0	0	2054
55	0	0	2076
56	0	0	2115
57	0	0	2137
58	0	0	2097
59	0	0	2072
60	0	0	2048
61	0	0	1998
62	0	0	2003
63	0	0	2012
64	0	0	2017
65	0	0	2034
66	0	0	2043
67	0	0	2044
68	0	0	2063
69	0	0	2081
70	0	0	2116
71	0	0	2113
72	0	0	2112
73	0	0	2109
74	0	0	2103
75	0	0	2097
76	0	0	2082
77	0	0	2059
78	0	0	2042
79	0	0	2063
80	0	0	2156
81	0	0	2132
82	0	0	2073
83	0	0	2048
84	0	0	2012
85	0	0	1979
86	0	0	1969
87	0	0	1969
88	0	0	1991
89	0	0	2027
90	0	0	2067
91	0	0	2101
92	0	0	2139
93	0	0	2158
94	0	0	2116
95	0	0	2080
96	0	0	2042
97	0	0	2038
98	0	0	2042
99	0	0	2061
100	0	0	2091
101	0	0	2134
102	0	0	2125
103	0	0	2093
104	0	0	2071
105	0	0	2052
106	0	0	2044
107	0	0	2057
108	0	0	2061
109	0	0	2075
110	0	0	2070
111	0	0	2064
112	0	0	2029
113	0	0	2048
114	0	0	2055
115	0	0	2021
116	0	0	2013
117	0	0	2050
118	0	0	2043
119	0	0	2004
120	0	0	1992
121	0	0	1994
122	0	0	2018
123	0	0	2063
124	0	0	2101
125	0	0	2136
126	0	0	2120
127	0	0	2137
0	0	0	2132
1	0	0	2099
2	0	0	2112
3	0	0	2102
4	0	0	2053
5	0	0	2035
6	0	0	2026
7	0	0	2018
8	0	0	2030
9	0	0	2034
10	0	0	2037
11	0	0	2053
12	0	0	2106
13	0	0	2113
14	0	0	2107
15	0	0	2098
16	0	0	2080
17	0	0	2084
18	0	0	2059
19	0	0	2081
20	0	0	2106
21	0	0	2125
22	0	0	2119
23	0	0	2070
24	0	0	2040
25	0	0	2009
26	0	0	1975
27	0	0	1975
28	0	0	1973
29	0	0	2015
30	0	0	2055
31	0	0	2057
32	0	0	2062
33	0	0	2063
34	0	0	2095
35	0	0	2119
36	0	0	2098
37	0	0	2101
38	0	0	2106
39	0	0	2110
40	0	0	2140
41	0	0	2162
42	0	0	2192
43	0	0	2107
44	0	0	2124
45	0	0	2101
46	0	0	2004
47	0	0	1970
48	0	0	1935
49	0	0	1881
50	0	0	1882
51	0	0	1924
52	0	0	1958
53	0	0	1982
54	0	0	2031
55	0	0	2089
56	0	0	2123
57	0	0	2115
58	0	0	2122
59	0	0	2110
60	0	0	2146
61	0	0	2192
62	0	0	2286
63	0	0	2238
64	0	0	2142
65	0	0	2064
66	0	0	1994
67	0	0	1948
68	0	0	1923
69	0	0	1944
70	0	0	2022
71	0	0	2051
72	0	0	2044
73	0	0	2058
74	0	0	2089
75	0	0	2101
76	0	0	2096
77	0	0	2103
78	0	0	2124
79	0	0	2094
80	0	0	2099
81	0	0	2083
82	0	0	2056
83	0	0	2044
84	0	0	2037
85	0	0	2023
86	0	0	2037
87	0	0	2041
88	0	0	2071
89	0	0	2074
90	0	0	2085
91	0	0	2098
92	0	0	2091
93	0	0	2109
94	0	0	2090
95	0	0	2097
96	0	0	2061
97	0	0	2011
98	0	0	2017
99	0	0	2040
100	0	0	2041
101	0	0	2043
102	0	0	2057
103	0	0	2073
104	0	0	2115
105	0	0	2163
106	0	0	2130
107	0	0	2085
108	0	0	2060
109	0	0	2008
110	0	0	1985
111	0	0	1985
112	0	0	1994
113	0	0	2019
114	0	0	2030
115	0	0	2045
116	0	0	2038
117	0	0	2044
118	0	0	2039
119	0	0	2058
120	0	0	2116
121	0	0	2124
122	0	0	2115
123	0	0	2135
124	0	0	2137
125	0	0	2157
126	0	0	2138
127	0	0	2122
0	0	0	2077
1	0	0	2053
2	0	0	2040
3	0	0	2040
4	0	0	2029
5	0	0	2069
6	0	0	2056
7	0	0	2049
8	0	0	2041
9	0	0	2014
10	0	0	1983
11	0	0	1994
12	0	0	2022
13	0	0	2062
14	0	0	2097
15	0	0	2102
16	0	0	2077
17	0	0	2076
18	0	0	2069
19	0	0	2048
20	0	0	2043
21	0	0	2088
22	0	0	2115
23	0	0	2146
24	0	0	2127
25	0	0	2090
26	0	0	2044
27	0	0	2005
28	0	0	1998
29	0	0	2002
30	0	0	2010
31	0	0	2033
32	0	0	2070
33	0	0	2090
34	0	0	2104
35	0	0	2156
36	0	0	2159
37	0	0	2110
38	0	0	2083
39	0	0	2069
40	0	0	2031
41	0	0	2012
42	0	0	2019
43	0	0	2037
44	0	0	2044
45	0	0	2084
46	0	0	2098
47	0	0	2090
48	0	0	2120
49	0	0	2098
50	0	0	2063
51	0	0	2076
52	0	0	2041
53	0	0	2032
54	0	0	2039
55	0	0	2035
56	0	0	2023
57	0	0	2036
58	0	0	2052
59	0	0	2040
60	0	0	2060
61	0	0	2057
62	0	0	2057
63	0	0	2068
64	0	0	2063
65	0	0	2083
66	0	0	2086
67	0	0	2085
68	0	0	2073
69	0	0	2057
70	0	0	2070
71	0	0	2087
72	0	0	2092
73	0	0	2127
74	0	0	2138
75	0	0	2090
76	0	0	2042
77	0	0	2016
78	0	0	2002
79	0	0	2008
80	0	0	1996
81	0	0	2006
82	0	0	2051
83	0	0	2103
84	0	0	2143
85	0	0	2131
86	0	0	2116
87	0	0	2096
88	0	0	2075
89	0	0	2037
90	0	0	2013
91	0	0	2012
92	0	0	2043
93	0	0	2057
94	0	0	2071
95	0	0	2065
96	0	0	2070
97	0	0	2079
98	0	0	2087
99	0	0	2094
100	0	0	2106
101	0	0	2087
102	0	0	2101
103	0	0	2123
104	0	0	2099
105	0	0	2068
106	0	0	2055
107	0	0	2077
108	0	0	2045
109	0	0	1999
110	0	0	1992
111	0	0	1992
112	0	0	2012
113	0	0	2044
114	0	0	2066
115	0	0	2071
116	0	0	2108
117	0	0	2110
118	0	0	2107
119	0	0	2115
120	0	0	2095
121	0	0	2055
122	0	0	2044
123	0	0	2079
124	0	0	2059
125	0	0	2055
126	0	0	2041
127	0	0	2034
0	0	0	2024
1	0	0	2025
2	0	0	2027
3	0	0	2062
4	0	0	2069
5	0	0	2084
6	0	0	2063
7	0	0	2046
8	0	0	2076
9	0	0	2107
10	0	0	2104
11	0	0	2104
12	0	0	2087
13	0	0	2078
14	0	0	2070
15	0	0	2068
16	0	0	2050
17	0	0	2046
18	0	0	2056
19	0	0	2063
20	0	0	2078
21	0	0	2081
22	0	0	2085
23	0	0	2093
24	0	0	2079
25	0	0	2072
26	0	0	2050
27	0	0	2052
28	0	0	2057
29	0	0	2110
30	0	0	2127
31	0	0	2098
32	0	0	2060
33	0	0	2019
34	0	0	1986
35	0	0	1947
36	0	0	1939
37	0	0	1958
38	0	0	2003
39	0	0	2067
40	0	0	2127
41	0	0	2111
42	0	0	2131
43	0	0	2155
44	0	0	2146
45	0	0	2140
46	0	0	2137
47	0	0	2112
48	0	0	2089
49	0	0	2043
50	0	0	1999
51	0	0	1992
52	0	0	2010
53	0	0	2001
54	0	0	1981
55	0	0	1984
56	0	0	2002
57	0	0	2037
58	0	0	2062
59	0	0	2073
60	0	0	2081
61	0	0	2117
62	0	0	2185
63	0	0	2196
64	0	0	2151
65	0	0	2124
66	0	0	2087
67	0	0	2061
68	0	0	2042
69	0	0	2011
70	0	0	1983
71	0	0	2004
72	0	0	2052
73	0	0	2146
74	0	0	2164
75	0	0	2138
76	0	0	2080
77	0	0	2033
78	0	0	1983
79	0	0	1962
80	0	0	1938
81	0	0	1955
82	0	0	1992
83	0	0	2006
84	0	0	2037
85	0	0	2050
86	0	0	2097
87	0	0	2136
88	0	0	2182
89	0	0	2188
90	0	0	2171
91	0	0	2163
92	0	0	2154
93	0	0	2101
94	0	0	2065
95	0	0	2055
96	0	0	2004
97	0	0	1983
98	0	0	1999
99	0	0	2009
100	0	0	1996
101	0	0	1993
102	0	0	2029
103	0	0	2083
104	0	0	2119
105	0	0	2155
106	0	0	2161
107	0	0	2129
108	0	0	2099
109	0	0	2091
110	0	0	2063
111	0	0	2042
112	0	0	2029
113	0	0	2036
114	0	0	2048
115	0	0	2068
116	0	0	2069
117	0	0	2067
118	0	0	2065
119	0	0	2065
120	0	0	2097
121	0	0	2071
122	0	0	2065
123	0	0	2031
124	0	0	1990
125	0	0	1973
126	0	0	2008
127	0	0	2042
0	0	0	2038
1	0	0	2004
2	0	0	2024
3	0	0	2079
4	0	0	2164
5	0	0	2173
6	0	0	2126
7	0	0	2104
8	0	0	2123
9	0	0	2151
10	0	0	2132
11	0	0	2094
12	0	0	2055
13	0	0	2027
14	0	0	2011
15	0	0	2005
16	0	0	2009
17	0	0	2039
18	0	0	2065
19	0	0	2068
20	0	0	2069
21	0	0	2009
22	0	0	2032
23	0	0	2062
24	0	0	2095
25	0	0	2147
26	0	0	2127
27	0	0	2082
28	0	0	2084
29	0	0	2106
30	0	0	2111
31	0	0	2115
32	0	0	2098
33	0	0	2077
34	0	0	2072
35	0	0	2032
36	0	0	1974
37	0	0	1942
38	0	0	1937
39	0	0	1947
40	0	0	2009
41	0	0	2077
42	0	0	2130
43	0	0	2124
44	0	0	2130
45	0	0	2135
46	0	0	2127
47	0	0	2124
48	0	0	2085
49	0	0	2055
50	0	0	2046
51	0	0	2027
52	0	0	2043
53	0	0	2082
54	0	0	2089
55	0	0	2055
56	0	0	2048
57	0	0	2055
58	0	0	2091
59	0	0	2090
60	0	0	2059
61	0	0	2027
62	0	0	2021
63	0	0	2040
64	0	0	2035
65	0	0	2037
66	0	0	2063
67	0	0	2088
68	0	0	2090
69	0	0	2110
70	0	0	2101
71	0	0	2094
72	0	0	2085
73	0	0	2070
74	0	0	2060
75	0	0	2057
76	0	0	2082
77	0	0	2101
78	0	0	2096
79	0	0	2109
80	0	0	2074
81	0	0	2034
82	0	0	2019
83	0	0	1986
84	0	0	1983
85	0	0	2031
86	0	0	2072
87	0	0	2077
88	0	0	2065
89	0	0	2080
90	0	0	2110
91	0	0	2090
92	0	0	2096
93	0	0	2082
94	0	0	2055
95	0	0	2043
96	0	0	2061
97	0	0	2069
98	0	0	2067
99	0	0	2077
100	0	0	2084
101	0	0	2092
102	0	0	2097
103	0	0	2078
104	0	0	2073
105	0	0	2068
106	0	0	2062
107	0	0	2053
108	0	0	2037
109	0	0	2035
110	0	0	2046
111	0	0	2077
112	0	0	2092
113	0	0	2066
114	0	0	2041
115	0	0	2039
116	0	0	2026
117	0	0	2033
118	0	0	2036
119	0	0	2065
120	0	0	2089
121	0	0	2081
122	0	0	2069
123	0	0	2073
124	0	0	2082
125	0	0	2081
126	0	0	2078
127	0	0	2102
0	0	0	2094
1	0	0	2085
2	0	0	2085
3	0	0	2055
4	0	0	2030
5	0	0	2035
6	0	0	2059
7	0	0	2079
8	0	0	2072
9	0	0	2064
10	0	0	2063
11	0	0	2023
12	0	0	2014
13	0	0	1958
14	0	0	1967
15	0	0	2040
16	0	0	2100
17	0	0	2129
18	0	0	2133
19	0	0	2119
20	0	0	2086
21	0	0	2068
22	0	0	2049
23	0	0	2044
24	0	0	2040
25	0	0	2043
26	0	0	2044
27	0	0	2047
28	0	0	2080
29	0	0	2104
30	0	0	2089
31	0	0	2086
32	0	0	2080
33	0	0	2069
34	0	0	2061
35	0	0	2050
36	0	0	2045
37	0	0	2029
38	0	0	2043
39	0	0	2067
40	0	0	2076
41	0	0	2091
42	0	0	2078
43	0	0	2081
44	0	0	2087
45	0	0	2049
46	0	0	2067
47	0	0	2088
48	0	0	2075
49	0	0	2050
50	0	0	2054
51	0	0	2050
52	0	0	2022
53	0	0	2035
54	0	0	2017
55	0	0	2003
56	0	0	2001
57	0	0	2076
58	0	0	2102
59	0	0	2104
60	0	0	2100
61	0	0	2080
62	0	0	2073
63	0	0	2096
64	0	0	2095
65	0	0	2103
66	0	0	2100
67	0	0	2084
68	0	0	2075
69	0	0	2042
70	0	0	2029
71	0	0	2042
72	0	0	2075
73	0	0	2085
74	0	0	2080
75	0	0	2058
76	0	0	2052
77	0	0	2044
78	0	0	2036
79	0	0	2004
80	0	0	2045
81	0	0	2101
82	0	0	2123
83	0	0	2103
84	0	0	2051
85	0	0	2025
86	0	0	2034
87	0	0	2055
88	0	0	2080
89	0	0	2124
90	0	0	2136
91	0	0	2100
92	0	0	2108
93	0	0	2102
94	0	0	2070
95	0	0	2039
96	0	0	2009
97	0	0	1973
98	0	0	2074
99	0	0	2113
100	0	0	2097
101	0	0	2065
102	0	0	2083
103	0	0	2093
104	0	0	2065
105	0	0	2083
106	0	0	2088
107	0	0	2080
108	0	0	2098
109	0	0	2100
110	0	0	2058
111	0	0	2014
112	0	0	2038
113	0	0	2034
114	0	0	1977
115	0	0	1977
116	0	0	2026
117	0	0	2064
118	0	0	2148
119	0	0	2159
120	0	0	2151
121	0	0	2117
122	0	0	2062
123	0	0	2041
124	0	0	2068
125	0	0	2098
126	0	0	2086
127	0	0	2065
0	0	0	2040
1	0	0	2047
2	0	0	2040
3	0	0	2024
4	0	0	2043
5	0	0	2058
6	0	0	2087
7	0	0	2112
8	0	0	2088
9	0	0	2059
10	0	0	2060
11	0	0	2015
12	0	0	2007
13	0	0	2079
14	0	0	2102
15	0	0	2100
16	0	0	2082
17	0	0	2058
18	0	0	2064
19	0	0	2054
20	0	0	2025
21	0	0	2043
22	0	0	2076
23	0	0	2053
24	0	0	2038
25	0	0	2060
26	0	0	2099
27	0	0	2118
28	0	0	2111
29	0	0	2091
30	0	0	2083
31	0	0	2073
32	0	0	2043
33	0	0	2052
34	0	0	2033
35	0	0	2041
36	0	0	2065
37	0	0	2050
38	0	0	2087
39	0	0	2055
40	0	0	2059
41	0	0	2013
42	0	0	2007
43	0	0	2082
44	0	0	2096
45	0	0	2103
46	0	0	2112
47	0	0	2098
48	0	0	2074
49	0	0	2044
50	0	0	2015
51	0	0	2077
52	0	0	2099
53	0	0	2081
54	0	0	2041
55	0	0	2094
56	0	0	2149
57	0	0	2130
58	0	0	2065
59	0	0	1950
60	0	0	1880
61	0	0	1966
62	0	0	1986
63	0	0	2030
64	0	0	2110
65	0	0	2144
66	0	0	2139
67	0	0	2125
68	0	0	2099
69	0	0	2054
70	0	0	2043
71	0	0	2074
72	0	0	2066
73	0	0	2119
74	0	0	2122
75	0	0	2087
76	0	0	2046
77	0	0	1985
78	0	0	1997
79	0	0	2038
80	0	0	2038
81	0	0	2069
82	0	0	2115
83	0	0	2107
84	0	0	2062
85	0	0	2069
86	0	0	2098
87	0	0	2074
88	0	0	2070
89	0	0	2050
90	0	0	2054
91	0	0	2090
92	0	0	2083
93	0	0	2013
94	0	0	1974
95	0	0	2079
96	0	0	2095
97	0	0	2115
98	0	0	2098
99	0	0	2063
100	0	0	2083
101	0	0	2069
102	0	0	2069
103	0	0	2060
104	0	0	2087
105	0	0	2085
106	0	0	2075
107	0	0	2070
108	0	0	2036
109	0	0	2022
110	0	0	2087
111	0	0	2092
112	0	0	2035
113	0	0	2063
114	0	0	2075
115	0	0	2071
116	0	0	2069
117	0	0	2072
118	0	0	2056
119	0	0	1975
120	0	0	1974
121	0	0	2128
122	0	0	2143
123	0	0	2114
124	0	0	2067
125	0	0	2097
126	0	0	2079
127	0	0	2025
0	0	0	2078
1	0	0	2091
2	0	0	2062
3	0	0	1991
4	0	0	2038
5	0	0	2088
6	0	0	2133
7	0	0	2098
8	0	0	2028
9	0	0	2027
10	0	0	2077
11	0	0	2004
12	0	0	2032
13	0	0	2111
14	0	0	2106
15	0	0	2058
16	0	0	2035
17	0	0	2069
18	0	0	2097
19	0	0	2131
20	0	0	2109
21	0	0	2088
22	0	0	2032
23	0	0	2052
24	0	0	2073
25	0	0	2038
26	0	0	2087
27	0	0	2049
28	0	0	2031
29	0	0	2077
30	0	0	2057
31	0	0	2041
32	0	0	2043
33	0	0	2124
34	0	0	2087
35	0	0	2075
36	0	0	2107
37	0	0	2103
38	0	0	2069
39	0	0	2053
40	0	0	2084
41	0	0	1975
42	0	0	1917
43	0	0	1928
44	0	0	2094
45	0	0	2153
46	0	0	2145
47	0	0	2119
48	0	0	2083
49	0	0	2083
50	0	0	2085
51	0	0	2099
52	0	0	2102
53	0	0	2088
54	0	0	2043
55	0	0	2055
56	0	0	2039
57	0	0	2018
58	0	0	2052
59	0	0	2034
60	0	0	1962
61	0	0	1985
62	0	0	2093
63	0	0	2126
64	0	0	2108
65	0	0	2123
66	0	0	2107
67	0	0	2068
68	0	0	2082
69	0	0	2098
70	0	0	2062
71	0	0	2064
72	0	0	2087
73	0	0	2063
74	0	0	2012
75	0	0	2062
76	0	0	2106
77	0	0	2093
78	0	0	2020
79	0	0	2099
80	0	0	2064
81	0	0	2036
82	0	0	1908
83	0	0	1973
84	0	0	2020
85	0	0	2051
86	0	0	2141
87	0	0	2109
88	0	0	2099
89	0	0	2096
90	0	0	2078
91	0	0	2045
92	0	0	2071
93	0	0	2058
94	0	0	1985
95	0	0	2099
96	0	0	2164
97	0	0	2179
98	0	0	2089
99	0	0	2083
100	0	0	2062
101	0	0	2055
102	0	0	2053
103	0	0	1998
104	0	0	1906
105	0	0	1951
106	0	0	1972
107	0	0	2030
108	0	0	2179
109	0	0	2212
110	0	0	2200
111	0	0	2146
112	0	0	1990
113	0	0	1912
114	0	0	2030
115	0	0	2068
116	0	0	2129
117	0	0	2075
118	0	0	2037
119	0	0	2099
120	0	0	2150
121	0	0	2122
122	0	0	2020
123	0	0	2052
124	0	0	2166
125	0	0	2065
126	0	0	2039
127	0	0	2064
0	0	0	1868
1	0	0	1821
2	0	0	1896
3	0	0	2008
4	0	0	2181
5	0	0	2280
6	0	0	2327
7	0	0	2226
8	0	0	2037
9	0	0	1948
10	0	0	1890
11	0	0	1966
12	0	0	1871
13	0	0	2029
14	0	0	2177
15	0	0	2152
16	0	0	2206
17	0	0	2166
18	0	0	2113
19	0	0	2085
20	0	0	2077
21	0	0	2119
22	0	0	2050
23	0	0	1999
24	0	0	2112
25	0	0	2055
26	0	0	1931
27	0	0	1804
28	0	0	1868
