# bioPlux Text File Format
# Version: 1
# StartDateTime: 2018-08-23 11:20:57
# SamplingFrequency: 1000
# SampledChannels: 5
# SamplingResolution: 12
# AcquiringDevice: 00:07:80:40:DD:D2
# EndOfHeader
0	0	0	2042
1	0	0	2035
2	0	0	2044
3	0	0	2061
4	0	0	2072
5	0	0	2075
6	0	0	2090
7	0	0	2096
8	0	0	2099
9	0	0	2071
10	0	0	2064
11	0	0	2053
12	0	0	2048
13	0	0	2051
14	0	0	2059
15	0	0	2058
16	0	0	2061
17	0	0	2067
18	0	0	2073
19	0	0	2065
20	0	0	2055
21	0	0	2048
22	0	0	2061
23	0	0	2066
24	0	0	2066
25	0	0	2066
26	0	0	2060
27	0	0	2062
28	0	0	2067
29	0	0	2070
30	0	0	2062
31	0	0	2063
32	0	0	2064
33	0	0	2063
34	0	0	2066
35	0	0	2076
36	0	0	2079
37	0	0	2085
38	0	0	2081
39	0	0	2061
40	0	0	2059
41	0	0	2060
42	0	0	2060
43	0	0	2060
44	0	0	2061
45	0	0	2073
46	0	0	2072
47	0	0	2069
48	0	0	2066
49	0	0	2060
50	0	0	2059
51	0	0	2060
52	0	0	2074
53	0	0	2069
54	0	0	2070
55	0	0	2072
56	0	0	2073
57	0	0	2076
58	0	0	2070
59	0	0	2062
60	0	0	2067
61	0	0	2063
62	0	0	2070
63	0	0	2067
64	0	0	2053
65	0	0	2060
66	0	0	2062
67	0	0	2051
68	0	0	2052
69	0	0	2080
70	0	0	2071
71	0	0	2059
72	0	0	2061
73	0	0	2077
74	0	0	2085
75	0	0	2071
76	0	0	2059
77	0	0	2074
78	0	0	2066
79	0	0	2059
80	0	0	2079
81	0	0	2056
82	0	0	2060
83	0	0	2079
84	0	0	2063
85	0	0	2053
86	0	0	2038
87	0	0	2055
88	0	0	2066
89	0	0	2074
90	0	0	2084
91	0	0	2076
92	0	0	2066
93	0	0	2069
94	0	0	2084
95	0	0	2064
96	0	0	2046
97	0	0	2067
98	0	0	2072
99	0	0	2061
100	0	0	2061
101	0	0	2073
102	0	0	2063
103	0	0	2060
104	0	0	2058
105	0	0	2057
106	0	0	2059
107	0	0	2068
108	0	0	2064
109	0	0	2070
110	0	0	2076
111	0	0	2075
112	0	0	2066
113	0	0	2065
114	0	0	2064
115	0	0	2067
116	0	0	2063
117	0	0	2079
118	0	0	2085
119	0	0	2058
120	0	0	2036
121	0	0	2046
122	0	0	2055
123	0	0	2055
124	0	0	2072
125	0	0	2076
126	0	0	2088
127	0	0	2098
0	0	0	2078
1	0	0	2057
2	0	0	2051
3	0	0	2056
4	0	0	2062
5	0	0	2069
6	0	0	2066
7	0	0	2062
8	0	0	2064
9	0	0	2062
10	0	0	2071
11	0	0	2082
12	0	0	2045
13	0	0	2046
14	0	0	2056
15	0	0	2065
16	0	0	2079
17	0	0	2079
18	0	0	2093
19	0	0	2081
20	0	0	2064
21	0	0	2067
22	0	0	2065
23	0	0	2068
24	0	0	2049
25	0	0	2053
26	0	0	2059
27	0	0	2076
28	0	0	2071
29	0	0	2064
30	0	0	2067
31	0	0	2067
32	0	0	2060
33	0	0	2058
34	0	0	2073
35	0	0	2044
36	0	0	2061
37	0	0	2063
38	0	0	2067
39	0	0	2073
40	0	0	2085
41	0	0	2081
42	0	0	2076
43	0	0	2058
44	0	0	2055
45	0	0	2065
46	0	0	2063
47	0	0	2056
48	0	0	2059
49	0	0	2058
50	0	0	2057
51	0	0	2071
52	0	0	2075
53	0	0	2076
54	0	0	2046
55	0	0	2057
56	0	0	2065
57	0	0	2066
58	0	0	2060
59	0	0	2068
60	0	0	2083
61	0	0	2072
62	0	0	2063
63	0	0	2074
64	0	0	2072
65	0	0	2052
66	0	0	2058
67	0	0	2065
68	0	0	2069
69	0	0	2072
70	0	0	2070
71	0	0	2055
72	0	0	2059
73	0	0	2062
74	0	0	2064
75	0	0	2067
76	0	0	2064
77	0	0	2053
78	0	0	2053
79	0	0	2058
80	0	0	2076
81	0	0	2082
82	0	0	2071
83	0	0	2074
84	0	0	2059
85	0	0	2073
86	0	0	2059
87	0	0	2065
88	0	0	2070
89	0	0	2078
90	0	0	2094
91	0	0	2072
92	0	0	2044
93	0	0	2044
94	0	0	2051
95	0	0	2056
96	0	0	2060
97	0	0	2083
98	0	0	2077
99	0	0	2056
100	0	0	2044
101	0	0	2059
102	0	0	2082
103	0	0	2073
104	0	0	2077
105	0	0	2077
106	0	0	2076
107	0	0	2045
108	0	0	2050
109	0	0	2060
110	0	0	2060
111	0	0	2083
112	0	0	2079
113	0	0	2078
114	0	0	2075
115	0	0	2062
116	0	0	2059
117	0	0	2055
118	0	0	2058
119	0	0	2060
120	0	0	2055
121	0	0	2055
122	0	0	2069
123	0	0	2068
124	0	0	2064
125	0	0	2063
126	0	0	2069
127	0	0	2076
0	0	0	2079
1	0	0	2066
2	0	0	2073
3	0	0	2076
4	0	0	2075
5	0	0	2054
6	0	0	2055
7	0	0	2052
8	0	0	2057
9	0	0	2067
10	0	0	2063
11	0	0	2068
12	0	0	2072
13	0	0	2074
14	0	0	2075
15	0	0	2090
16	0	0	2065
17	0	0	2055
18	0	0	2055
19	0	0	2060
20	0	0	2060
21	0	0	2066
22	0	0	2063
23	0	0	2066
24	0	0	2071
25	0	0	2065
26	0	0	2064
27	0	0	2066
28	0	0	2066
29	0	0	2064
30	0	0	2065
31	0	0	2064
32	0	0	2071
33	0	0	2064
34	0	0	2057
35	0	0	2060
36	0	0	2067
37	0	0	2065
38	0	0	2077
39	0	0	2070
40	0	0	2069
41	0	0	2071
42	0	0	2091
43	0	0	2077
44	0	0	2064
45	0	0	2064
46	0	0	2054
47	0	0	2048
48	0	0	2059
49	0	0	2065
50	0	0	2071
51	0	0	2062
52	0	0	2058
53	0	0	2072
54	0	0	2074
55	0	0	2066
56	0	0	2056
57	0	0	2062
58	0	0	2067
59	0	0	2069
60	0	0	2065
61	0	0	2065
62	0	0	2061
63	0	0	2070
64	0	0	2088
65	0	0	2076
66	0	0	2065
67	0	0	2054
68	0	0	2062
69	0	0	2073
70	0	0	2060
71	0	0	2050
72	0	0	2056
73	0	0	2071
74	0	0	2089
75	0	0	2070
76	0	0	2088
77	0	0	2087
78	0	0	2057
79	0	0	2041
80	0	0	2053
81	0	0	2063
82	0	0	2077
83	0	0	2082
84	0	0	2073
85	0	0	2054
86	0	0	2050
87	0	0	2054
88	0	0	2065
89	0	0	2061
90	0	0	2073
91	0	0	2082
92	0	0	2067
93	0	0	2059
94	0	0	2065
95	0	0	2062
96	0	0	2063
97	0	0	2075
98	0	0	2065
99	0	0	2062
100	0	0	2062
101	0	0	2056
102	0	0	2073
103	0	0	2079
104	0	0	2065
105	0	0	2068
106	0	0	2069
107	0	0	2064
108	0	0	2064
109	0	0	2075
110	0	0	2062
111	0	0	2061
112	0	0	2071
113	0	0	2061
114	0	0	2057
115	0	0	2063
116	0	0	2066
117	0	0	2063
118	0	0	2071
119	0	0	2064
120	0	0	2066
121	0	0	2079
122	0	0	2071
123	0	0	2073
124	0	0	2071
125	0	0	2064
126	0	0	2082
127	0	0	2073
0	0	0	2046
1	0	0	2053
2	0	0	2057
3	0	0	2057
4	0	0	2061
5	0	0	2062
6	0	0	2064
7	0	0	2072
8	0	0	2074
9	0	0	2066
10	0	0	2064
11	0	0	2069
12	0	0	2076
13	0	0	2078
14	0	0	2072
15	0	0	2056
16	0	0	2054
17	0	0	2061
18	0	0	2060
19	0	0	2063
20	0	0	2063
21	0	0	2066
22	0	0	2067
23	0	0	2066
24	0	0	2063
25	0	0	2063
26	0	0	2063
27	0	0	2062
28	0	0	2054
29	0	0	2048
30	0	0	2053
31	0	0	2072
32	0	0	2073
33	0	0	2072
34	0	0	2084
35	0	0	2095
36	0	0	2099
37	0	0	2091
38	0	0	2056
39	0	0	2040
40	0	0	2041
41	0	0	2045
42	0	0	2053
43	0	0	2054
44	0	0	2058
45	0	0	2074
46	0	0	2075
47	0	0	2086
48	0	0	2081
49	0	0	2072
50	0	0	2057
51	0	0	2049
52	0	0	2059
53	0	0	2065
54	0	0	2063
55	0	0	2058
56	0	0	2068
57	0	0	2072
58	0	0	2065
59	0	0	2068
60	0	0	2067
61	0	0	2067
62	0	0	2068
63	0	0	2067
64	0	0	2068
65	0	0	2053
66	0	0	2053
67	0	0	2049
68	0	0	2060
69	0	0	2084
70	0	0	2072
71	0	0	2072
72	0	0	2089
73	0	0	2091
74	0	0	2067
75	0	0	2062
76	0	0	2067
77	0	0	2069
78	0	0	2058
79	0	0	2050
80	0	0	2052
81	0	0	2058
82	0	0	2059
83	0	0	2061
84	0	0	2062
85	0	0	2069
86	0	0	2063
87	0	0	2060
88	0	0	2061
89	0	0	2067
90	0	0	2066
91	0	0	2066
92	0	0	2075
93	0	0	2066
94	0	0	2056
95	0	0	2061
96	0	0	2064
97	0	0	2080
98	0	0	2072
99	0	0	2060
100	0	0	2067
101	0	0	2070
102	0	0	2073
103	0	0	2064
104	0	0	2057
105	0	0	2055
106	0	0	2061
107	0	0	2067
108	0	0	2075
109	0	0	2069
110	0	0	2061
111	0	0	2067
112	0	0	2065
113	0	0	2072
114	0	0	2066
115	0	0	2056
116	0	0	2053
117	0	0	2057
118	0	0	2066
119	0	0	2068
120	0	0	2066
121	0	0	2066
122	0	0	2079
123	0	0	2064
124	0	0	2060
125	0	0	2070
126	0	0	2080
127	0	0	2071
0	0	0	2058
1	0	0	2052
2	0	0	2066
3	0	0	2062
4	0	0	2065
5	0	0	2066
6	0	0	2068
7	0	0	2060
8	0	0	2055
9	0	0	2062
10	0	0	2068
11	0	0	2064
12	0	0	2072
13	0	0	2066
14	0	0	2081
15	0	0	2071
16	0	0	2051
17	0	0	2045
18	0	0	2053
19	0	0	2070
20	0	0	2093
21	0	0	2090
22	0	0	2083
23	0	0	2086
24	0	0	2082
25	0	0	2075
26	0	0	2033
27	0	0	2041
28	0	0	2049
29	0	0	2046
30	0	0	2057
31	0	0	2071
32	0	0	2083
33	0	0	2078
34	0	0	2055
35	0	0	2065
36	0	0	2081
37	0	0	2069
38	0	0	2066
39	0	0	2060
40	0	0	2069
41	0	0	2082
42	0	0	2060
43	0	0	2052
44	0	0	2053
45	0	0	2059
46	0	0	2058
47	0	0	2076
48	0	0	2078
49	0	0	2070
50	0	0	2051
51	0	0	2044
52	0	0	2054
53	0	0	2055
54	0	0	2074
55	0	0	2093
56	0	0	2092
57	0	0	2083
58	0	0	2056
59	0	0	2038
60	0	0	2048
61	0	0	2066
62	0	0	2066
63	0	0	2083
64	0	0	2087
65	0	0	2082
66	0	0	2065
67	0	0	2052
68	0	0	2041
69	0	0	2042
70	0	0	2056
71	0	0	2064
72	0	0	2076
73	0	0	2088
74	0	0	2089
75	0	0	2094
76	0	0	2073
77	0	0	2048
78	0	0	2054
79	0	0	2054
80	0	0	2060
81	0	0	2078
82	0	0	2061
83	0	0	2057
84	0	0	2057
85	0	0	2060
86	0	0	2060
87	0	0	2062
88	0	0	2063
89	0	0	2068
90	0	0	2075
91	0	0	2072
92	0	0	2075
93	0	0	2082
94	0	0	2084
95	0	0	2060
96	0	0	2056
97	0	0	2052
98	0	0	2044
99	0	0	2059
100	0	0	2066
101	0	0	2071
102	0	0	2077
103	0	0	2083
104	0	0	2086
105	0	0	2084
106	0	0	2059
107	0	0	2046
108	0	0	2056
109	0	0	2058
110	0	0	2057
111	0	0	2062
112	0	0	2064
113	0	0	2078
114	0	0	2081
115	0	0	2073
116	0	0	2071
117	0	0	2075
118	0	0	2073
119	0	0	2048
120	0	0	2050
121	0	0	2053
122	0	0	2061
123	0	0	2065
124	0	0	2073
125	0	0	2067
126	0	0	2063
127	0	0	2058
0	0	0	2068
1	0	0	2066
2	0	0	2097
3	0	0	2079
4	0	0	2084
5	0	0	2076
6	0	0	2073
7	0	0	2061
8	0	0	2052
9	0	0	2042
10	0	0	2055
11	0	0	2056
12	0	0	2061
13	0	0	2062
14	0	0	2069
15	0	0	2059
16	0	0	2061
17	0	0	2072
18	0	0	2081
19	0	0	2065
20	0	0	2065
21	0	0	2065
22	0	0	2087
23	0	0	2073
24	0	0	2062
25	0	0	2074
26	0	0	2067
27	0	0	2056
28	0	0	2057
29	0	0	2081
30	0	0	2059
31	0	0	2050
32	0	0	2055
33	0	0	2065
34	0	0	2059
35	0	0	2064
36	0	0	2067
37	0	0	2070
38	0	0	2059
39	0	0	2073
40	0	0	2075
41	0	0	2069
42	0	0	2062
43	0	0	2081
44	0	0	2084
45	0	0	2079
46	0	0	2051
47	0	0	2041
48	0	0	2057
49	0	0	2060
50	0	0	2065
51	0	0	2069
52	0	0	2064
53	0	0	2063
54	0	0	2063
55	0	0	2067
56	0	0	2065
57	0	0	2060
58	0	0	2061
59	0	0	2067
60	0	0	2067
61	0	0	2065
62	0	0	2072
63	0	0	2060
64	0	0	2071
65	0	0	2074
66	0	0	2066
67	0	0	2062
68	0	0	2066
69	0	0	2067
70	0	0	2060
71	0	0	2061
72	0	0	2066
73	0	0	2063
74	0	0	2034
75	0	0	2036
76	0	0	2079
77	0	0	2095
78	0	0	2084
79	0	0	2096
80	0	0	2114
81	0	0	2119
82	0	0	2068
83	0	0	2026
84	0	0	2029
85	0	0	2037
86	0	0	2059
87	0	0	2050
88	0	0	2060
89	0	0	2064
90	0	0	2062
91	0	0	2062
92	0	0	2066
93	0	0	2063
94	0	0	2067
95	0	0	2071
96	0	0	2074
97	0	0	2070
98	0	0	2066
99	0	0	2063
100	0	0	2061
101	0	0	2069
102	0	0	2072
103	0	0	2067
104	0	0	2069
105	0	0	2065
106	0	0	2058
107	0	0	2061
108	0	0	2068
109	0	0	2054
110	0	0	2058
111	0	0	2067
112	0	0	2059
113	0	0	2069
114	0	0	2065
115	0	0	2079
116	0	0	2076
117	0	0	2058
118	0	0	2076
119	0	0	2084
120	0	0	2045
121	0	0	2067
122	0	0	2060
123	0	0	2078
124	0	0	2096
125	0	0	2080
126	0	0	2068
127	0	0	2063
0	0	0	2051
1	0	0	2052
2	0	0	2055
3	0	0	2063
4	0	0	2058
5	0	0	2058
6	0	0	2061
7	0	0	2062
8	0	0	2055
9	0	0	2067
10	0	0	2067
11	0	0	2070
12	0	0	2075
13	0	0	2074
14	0	0	2070
15	0	0	2060
16	0	0	2068
17	0	0	2062
18	0	0	2068
19	0	0	2065
20	0	0	2063
21	0	0	2064
22	0	0	2063
23	0	0	2065
24	0	0	2064
25	0	0	2064
26	0	0	2067
27	0	0	2067
28	0	0	2061
29	0	0	2062
30	0	0	2079
31	0	0	2063
32	0	0	2073
33	0	0	2064
34	0	0	2063
35	0	0	2055
36	0	0	2062
37	0	0	2056
38	0	0	2054
39	0	0	2059
40	0	0	2071
41	0	0	2084
42	0	0	2106
43	0	0	2077
44	0	0	2068
45	0	0	2095
46	0	0	2058
47	0	0	2044
48	0	0	2056
49	0	0	2078
50	0	0	2067
51	0	0	2080
52	0	0	2060
53	0	0	2051
54	0	0	2061
55	0	0	2055
56	0	0	2059
57	0	0	2063
58	0	0	2076
59	0	0	2064
60	0	0	2057
61	0	0	2059
62	0	0	2061
63	0	0	2061
64	0	0	2063
65	0	0	2064
66	0	0	2068
67	0	0	2071
68	0	0	2067
69	0	0	2067
70	0	0	2071
71	0	0	2067
72	0	0	2065
73	0	0	2067
74	0	0	2070
75	0	0	2065
76	0	0	2063
77	0	0	2066
78	0	0	2068
79	0	0	2064
80	0	0	2063
81	0	0	2060
82	0	0	2085
83	0	0	2056
84	0	0	2061
85	0	0	2055
86	0	0	2057
87	0	0	2056
88	0	0	2056
89	0	0	2077
90	0	0	2106
91	0	0	2092
92	0	0	2084
93	0	0	2058
94	0	0	2059
95	0	0	2052
96	0	0	2044
97	0	0	2068
98	0	0	2063
99	0	0	2072
100	0	0	2072
101	0	0	2076
102	0	0	2066
103	0	0	2070
104	0	0	2049
105	0	0	2057
106	0	0	2063
107	0	0	2056
108	0	0	2060
109	0	0	2054
110	0	0	2057
111	0	0	2061
112	0	0	2065
113	0	0	2074
114	0	0	2080
115	0	0	2062
116	0	0	2063
117	0	0	2074
118	0	0	2066
119	0	0	2061
120	0	0	2057
121	0	0	2060
122	0	0	2064
123	0	0	2067
124	0	0	2065
125	0	0	2068
126	0	0	2064
127	0	0	2058
0	0	0	2067
1	0	0	2065
2	0	0	2054
3	0	0	2043
4	0	0	2050
5	0	0	2054
6	0	0	2078
7	0	0	2093
8	0	0	2097
9	0	0	2092
10	0	0	2079
11	0	0	2074
12	0	0	2080
13	0	0	2045
14	0	0	2037
15	0	0	2056
16	0	0	2086
17	0	0	2083
18	0	0	2045
19	0	0	2028
20	0	0	2053
21	0	0	2066
22	0	0	2085
23	0	0	2073
24	0	0	2080
25	0	0	2087
26	0	0	2067
27	0	0	2042
28	0	0	2045
29	0	0	2056
30	0	0	2058
31	0	0	2052
32	0	0	2044
33	0	0	2054
34	0	0	2065
35	0	0	2077
36	0	0	2088
37	0	0	2096
38	0	0	2088
39	0	0	2063
40	0	0	2062
41	0	0	2072
42	0	0	2077
43	0	0	2061
44	0	0	2078
45	0	0	2069
46	0	0	2042
47	0	0	2028
48	0	0	2032
49	0	0	2058
50	0	0	2078
51	0	0	2086
52	0	0	2096
53	0	0	2096
54	0	0	2068
55	0	0	2064
56	0	0	2050
57	0	0	2059
58	0	0	2053
59	0	0	2064
60	0	0	2067
61	0	0	2070
62	0	0	2057
63	0	0	2060
64	0	0	2073
65	0	0	2065
66	0	0	2053
67	0	0	2060
68	0	0	2072
69	0	0	2065
70	0	0	2061
71	0	0	2064
72	0	0	2062
73	0	0	2056
74	0	0	2056
75	0	0	2058
76	0	0	2080
77	0	0	2079
78	0	0	2071
79	0	0	2076
80	0	0	2074
81	0	0	2077
82	0	0	2065
83	0	0	2028
84	0	0	2048
85	0	0	2056
86	0	0	2054
87	0	0	2054
88	0	0	2085
89	0	0	2101
90	0	0	2098
91	0	0	2081
92	0	0	2068
93	0	0	2063
94	0	0	2080
95	0	0	2061
96	0	0	2031
97	0	0	2040
98	0	0	2053
99	0	0	2063
100	0	0	2083
101	0	0	2072
102	0	0	2075
103	0	0	2063
104	0	0	2061
105	0	0	2053
106	0	0	2046
107	0	0	2052
108	0	0	2068
109	0	0	2074
110	0	0	2081
111	0	0	2073
112	0	0	2067
113	0	0	2064
114	0	0	2055
115	0	0	2066
116	0	0	2078
117	0	0	2071
118	0	0	2083
119	0	0	2068
120	0	0	2058
121	0	0	2062
122	0	0	2052
123	0	0	2067
124	0	0	2061
125	0	0	2055
126	0	0	2063
127	0	0	2061
0	0	0	2050
1	0	0	2055
2	0	0	2073
3	0	0	2073
4	0	0	2086
5	0	0	2070
6	0	0	2078
7	0	0	2088
8	0	0	2069
9	0	0	2070
10	0	0	2056
11	0	0	2067
12	0	0	2056
13	0	0	2052
14	0	0	2055
15	0	0	2062
16	0	0	2057
17	0	0	2058
18	0	0	2064
19	0	0	2062
20	0	0	2059
21	0	0	2057
22	0	0	2068
23	0	0	2073
24	0	0	2067
25	0	0	2062
26	0	0	2064
27	0	0	2069
28	0	0	2068
29	0	0	2064
30	0	0	2061
31	0	0	2068
32	0	0	2070
33	0	0	2058
34	0	0	2063
35	0	0	2067
36	0	0	2055
37	0	0	2062
38	0	0	2077
39	0	0	2082
40	0	0	2064
41	0	0	2061
42	0	0	2062
43	0	0	2067
44	0	0	2086
45	0	0	2060
46	0	0	2058
47	0	0	2074
48	0	0	2075
49	0	0	2049
50	0	0	2060
51	0	0	2081
52	0	0	2061
53	0	0	2051
54	0	0	2072
55	0	0	2060
56	0	0	2071
57	0	0	2080
58	0	0	2070
59	0	0	2058
60	0	0	2059
61	0	0	2055
62	0	0	2068
63	0	0	2061
64	0	0	2075
65	0	0	2069
66	0	0	2083
67	0	0	2084
68	0	0	2078
69	0	0	2051
70	0	0	2051
71	0	0	2057
72	0	0	2072
73	0	0	2077
74	0	0	2072
75	0	0	2071
76	0	0	2048
77	0	0	2058
78	0	0	2066
79	0	0	2060
80	0	0	2065
81	0	0	2074
82	0	0	2079
83	0	0	2071
84	0	0	2066
85	0	0	2058
86	0	0	2061
87	0	0	2066
88	0	0	2061
89	0	0	2051
90	0	0	2053
91	0	0	2070
92	0	0	2068
93	0	0	2073
94	0	0	2083
95	0	0	2092
96	0	0	2080
97	0	0	2064
98	0	0	2070
99	0	0	2091
100	0	0	2055
101	0	0	2042
102	0	0	2056
103	0	0	2057
104	0	0	2058
105	0	0	2056
106	0	0	2050
107	0	0	2055
108	0	0	2058
109	0	0	2056
110	0	0	2069
111	0	0	2074
112	0	0	2093
113	0	0	2092
114	0	0	2085
115	0	0	2057
116	0	0	2048
117	0	0	2062
118	0	0	2069
119	0	0	2060
120	0	0	2068
121	0	0	2064
122	0	0	2065
123	0	0	2057
124	0	0	2055
125	0	0	2063
126	0	0	2061
127	0	0	2065
0	0	0	2060
1	0	0	2063
2	0	0	2067
3	0	0	2050
4	0	0	2048
5	0	0	2062
6	0	0	2064
7	0	0	2078
8	0	0	2084
9	0	0	2108
10	0	0	2105
11	0	0	2070
12	0	0	2048
13	0	0	2048
14	0	0	2062
15	0	0	2058
16	0	0	2057
17	0	0	2054
18	0	0	2058
19	0	0	2063
20	0	0	2065
21	0	0	2059
22	0	0	2075
23	0	0	2067
24	0	0	2069
25	0	0	2064
26	0	0	2058
27	0	0	2065
28	0	0	2068
29	0	0	2065
30	0	0	2067
31	0	0	2074
32	0	0	2061
33	0	0	2059
34	0	0	2049
35	0	0	2064
36	0	0	2075
37	0	0	2064
38	0	0	2054
39	0	0	2068
40	0	0	2055
41	0	0	2063
42	0	0	2084
43	0	0	2098
44	0	0	2102
45	0	0	2093
46	0	0	2099
47	0	0	2055
48	0	0	2030
49	0	0	2040
50	0	0	2044
51	0	0	2051
52	0	0	2055
53	0	0	2056
54	0	0	2063
55	0	0	2055
56	0	0	2060
57	0	0	2067
58	0	0	2069
59	0	0	2069
60	0	0	2071
61	0	0	2070
62	0	0	2063
63	0	0	2066
64	0	0	2064
65	0	0	2065
66	0	0	2065
67	0	0	2064
68	0	0	2063
69	0	0	2071
70	0	0	2072
71	0	0	2060
72	0	0	2058
73	0	0	2061
74	0	0	2054
75	0	0	2045
76	0	0	2062
77	0	0	2086
78	0	0	2092
79	0	0	2093
80	0	0	2086
81	0	0	2094
82	0	0	2075
83	0	0	2061
84	0	0	2049
85	0	0	2043
86	0	0	2040
87	0	0	2036
88	0	0	2049
89	0	0	2064
90	0	0	2079
91	0	0	2086
92	0	0	2090
93	0	0	2073
94	0	0	2063
95	0	0	2067
96	0	0	2064
97	0	0	2062
98	0	0	2059
99	0	0	2067
100	0	0	2066
101	0	0	2071
102	0	0	2065
103	0	0	2059
104	0	0	2062
105	0	0	2048
106	0	0	2068
107	0	0	2075
108	0	0	2068
109	0	0	2067
110	0	0	2058
111	0	0	2063
112	0	0	2060
113	0	0	2063
114	0	0	2051
115	0	0	2061
116	0	0	2087
117	0	0	2091
118	0	0	2063
119	0	0	2076
120	0	0	2075
121	0	0	2049
122	0	0	2044
123	0	0	2054
124	0	0	2064
125	0	0	2066
126	0	0	2070
127	0	0	2067
0	0	0	2095
1	0	0	2076
2	0	0	2060
3	0	0	2061
4	0	0	2064
5	0	0	2069
6	0	0	2076
7	0	0	2065
8	0	0	2060
9	0	0	2064
10	0	0	2074
11	0	0	2062
12	0	0	2051
13	0	0	2054
14	0	0	2061
15	0	0	2066
16	0	0	2062
17	0	0	2066
18	0	0	2064
19	0	0	2058
20	0	0	2065
21	0	0	2066
22	0	0	2068
23	0	0	2067
24	0	0	2068
25	0	0	2064
26	0	0	2065
27	0	0	2067
28	0	0	2062
29	0	0	2063
30	0	0	2058
31	0	0	2051
32	0	0	2045
33	0	0	2058
34	0	0	2070
35	0	0	2098
36	0	0	2088
37	0	0	2091
38	0	0	2088
39	0	0	2083
40	0	0	2077
41	0	0	2061
42	0	0	2040
43	0	0	2060
44	0	0	2056
45	0	0	2060
46	0	0	2055
47	0	0	2059
48	0	0	2075
49	0	0	2069
50	0	0	2058
51	0	0	2064
52	0	0	2064
53	0	0	2068
54	0	0	2065
55	0	0	2058
56	0	0	2059
57	0	0	2060
58	0	0	2064
59	0	0	2076
60	0	0	2065
61	0	0	2069
62	0	0	2064
63	0	0	2065
64	0	0	2068
65	0	0	2066
66	0	0	2068
67	0	0	2066
68	0	0	2071
69	0	0	2067
70	0	0	2065
71	0	0	2067
72	0	0	2067
73	0	0	2064
74	0	0	2066
75	0	0	2072
76	0	0	2066
77	0	0	2063
78	0	0	2064
79	0	0	2065
80	0	0	2068
81	0	0	2073
82	0	0	2067
83	0	0	2060
84	0	0	2056
85	0	0	2060
86	0	0	2067
87	0	0	2063
88	0	0	2062
89	0	0	2075
90	0	0	2074
91	0	0	2098
92	0	0	2076
93	0	0	2055
94	0	0	2055
95	0	0	2051
96	0	0	2059
97	0	0	2057
98	0	0	2060
99	0	0	2087
100	0	0	2088
101	0	0	2097
102	0	0	2076
103	0	0	2065
104	0	0	2050
105	0	0	2041
106	0	0	2074
107	0	0	2081
108	0	0	2059
109	0	0	2064
110	0	0	2061
111	0	0	2053
112	0	0	2055
113	0	0	2061
114	0	0	2069
115	0	0	2060
116	0	0	2066
117	0	0	2067
118	0	0	2066
119	0	0	2066
120	0	0	2065
121	0	0	2064
122	0	0	2064
123	0	0	2068
124	0	0	2071
125	0	0	2068
126	0	0	2068
127	0	0	2061
0	0	0	2069
1	0	0	2055
2	0	0	2053
3	0	0	2064
4	0	0	2081
5	0	0	2083
6	0	0	2086
7	0	0	2083
8	0	0	2073
9	0	0	2077
10	0	0	2046
11	0	0	2050
12	0	0	2056
13	0	0	2057
14	0	0	2060
15	0	0	2068
16	0	0	2063
17	0	0	2065
18	0	0	2064
19	0	0	2074
20	0	0	2070
21	0	0	2063
22	0	0	2069
23	0	0	2063
24	0	0	2067
25	0	0	2070
26	0	0	2060
27	0	0	2065
28	0	0	2061
29	0	0	2063
30	0	0	2065
31	0	0	2063
32	0	0	2064
33	0	0	2058
34	0	0	2061
35	0	0	2073
36	0	0	2068
37	0	0	2060
38	0	0	2063
39	0	0	2063
40	0	0	2072
41	0	0	2069
42	0	0	2075
43	0	0	2071
44	0	0	2065
45	0	0	2072
46	0	0	2061
47	0	0	2065
48	0	0	2059
49	0	0	2056
50	0	0	2060
51	0	0	2068
52	0	0	2066
53	0	0	2061
54	0	0	2082
55	0	0	2065
56	0	0	2064
57	0	0	2061
58	0	0	2057
59	0	0	2060
60	0	0	2065
61	0	0	2061
62	0	0	2058
63	0	0	2076
64	0	0	2058
65	0	0	2069
66	0	0	2083
67	0	0	2078
68	0	0	2071
69	0	0	2075
70	0	0	2071
71	0	0	2066
72	0	0	2069
73	0	0	2048
74	0	0	2043
75	0	0	2073
76	0	0	2065
77	0	0	2061
78	0	0	2062
79	0	0	2069
80	0	0	2064
81	0	0	2056
82	0	0	2050
83	0	0	2062
84	0	0	2064
85	0	0	2064
86	0	0	2075
87	0	0	2089
88	0	0	2082
89	0	0	2074
90	0	0	2071
91	0	0	2069
92	0	0	2062
93	0	0	2061
94	0	0	2056
95	0	0	2054
96	0	0	2053
97	0	0	2058
98	0	0	2066
99	0	0	2068
100	0	0	2064
101	0	0	2062
102	0	0	2067
103	0	0	2064
104	0	0	2062
105	0	0	2066
106	0	0	2069
107	0	0	2062
108	0	0	2063
109	0	0	2056
110	0	0	2052
111	0	0	2062
112	0	0	2087
113	0	0	2094
114	0	0	2080
115	0	0	2067
116	0	0	2072
117	0	0	2079
118	0	0	2065
119	0	0	2048
120	0	0	2057
121	0	0	2052
122	0	0	2044
123	0	0	2061
124	0	0	2068
125	0	0	2069
126	0	0	2078
127	0	0	2082
0	0	0	2099
1	0	0	2071
2	0	0	2058
3	0	0	2058
4	0	0	2048
5	0	0	2057
6	0	0	2059
7	0	0	2069
8	0	0	2058
9	0	0	2055
10	0	0	2062
11	0	0	2069
12	0	0	2077
13	0	0	2080
14	0	0	2069
15	0	0	2062
16	0	0	2061
17	0	0	2063
18	0	0	2070
19	0	0	2072
20	0	0	2062
21	0	0	2056
22	0	0	2058
23	0	0	2072
24	0	0	2067
25	0	0	2068
26	0	0	2064
27	0	0	2063
28	0	0	2069
29	0	0	2064
30	0	0	2066
31	0	0	2064
32	0	0	2062
33	0	0	2072
34	0	0	2070
35	0	0	2057
36	0	0	2064
37	0	0	2067
38	0	0	2067
39	0	0	2065
40	0	0	2072
41	0	0	2079
42	0	0	2086
43	0	0	2069
44	0	0	2064
45	0	0	2056
46	0	0	2054
47	0	0	2059
48	0	0	2076
49	0	0	2060
50	0	0	2054
51	0	0	2065
52	0	0	2069
53	0	0	2081
54	0	0	2059
55	0	0	2057
56	0	0	2075
57	0	0	2076
58	0	0	2063
59	0	0	2069
60	0	0	2071
61	0	0	2072
62	0	0	2070
63	0	0	2059
64	0	0	2061
65	0	0	2068
66	0	0	2061
67	0	0	2070
68	0	0	2060
69	0	0	2064
70	0	0	2071
71	0	0	2064
72	0	0	2056
73	0	0	2066
74	0	0	2073
75	0	0	2065
76	0	0	2058
77	0	0	2063
78	0	0	2060
79	0	0	2065
80	0	0	2063
81	0	0	2070
82	0	0	2071
83	0	0	2066
84	0	0	2073
85	0	0	2067
86	0	0	2060
87	0	0	2058
88	0	0	2066
89	0	0	2059
90	0	0	2067
91	0	0	2086
92	0	0	2075
93	0	0	2070
94	0	0	2082
95	0	0	2055
96	0	0	2049
97	0	0	2060
98	0	0	2062
99	0	0	2064
100	0	0	2064
101	0	0	2071
102	0	0	2072
103	0	0	2064
104	0	0	2072
105	0	0	2077
106	0	0	2070
107	0	0	2054
108	0	0	2065
109	0	0	2062
110	0	0	2062
111	0	0	2053
112	0	0	2068
113	0	0	2058
114	0	0	2068
115	0	0	2061
116	0	0	2058
117	0	0	2060
118	0	0	2062
119	0	0	2067
120	0	0	2075
121	0	0	2079
122	0	0	2062
123	0	0	2057
124	0	0	2059
125	0	0	2069
126	0	0	2057
127	0	0	2064
0	0	0	2075
1	0	0	2086
2	0	0	2090
3	0	0	2070
4	0	0	2054
5	0	0	2060
6	0	0	2070
7	0	0	2053
8	0	0	2052
9	0	0	2067
10	0	0	2064
11	0	0	2073
12	0	0	2076
13	0	0	2058
14	0	0	2046
15	0	0	2056
16	0	0	2075
17	0	0	2065
18	0	0	2064
19	0	0	2068
20	0	0	2072
21	0	0	2067
22	0	0	2060
23	0	0	2064
24	0	0	2064
25	0	0	2067
26	0	0	2064
27	0	0	2061
28	0	0	2074
29	0	0	2072
30	0	0	2058
31	0	0	2066
32	0	0	2082
33	0	0	2064
34	0	0	2057
35	0	0	2053
36	0	0	2068
37	0	0	2055
38	0	0	2065
39	0	0	2067
40	0	0	2071
41	0	0	2081
42	0	0	2069
43	0	0	2059
44	0	0	2056
45	0	0	2055
46	0	0	2061
47	0	0	2072
48	0	0	2074
49	0	0	2077
50	0	0	2075
51	0	0	2074
52	0	0	2066
53	0	0	2053
54	0	0	2060
55	0	0	2060
56	0	0	2060
57	0	0	2075
58	0	0	2067
59	0	0	2065
60	0	0	2055
61	0	0	2060
62	0	0	2060
63	0	0	2070
64	0	0	2074
65	0	0	2071
66	0	0	2076
67	0	0	2083
68	0	0	2074
69	0	0	2055
70	0	0	2043
71	0	0	2053
72	0	0	2059
73	0	0	2059
74	0	0	2068
75	0	0	2071
76	0	0	2079
77	0	0	2072
78	0	0	2066
79	0	0	2068
80	0	0	2066
81	0	0	2074
82	0	0	2079
83	0	0	2065
84	0	0	2049
85	0	0	2053
86	0	0	2057
87	0	0	2060
88	0	0	2062
89	0	0	2059
90	0	0	2065
91	0	0	2075
92	0	0	2080
93	0	0	2087
94	0	0	2065
95	0	0	2049
96	0	0	2059
97	0	0	2063
98	0	0	2070
99	0	0	2075
100	0	0	2066
101	0	0	2067
102	0	0	2065
103	0	0	2067
104	0	0	2061
105	0	0	2058
106	0	0	2062
107	0	0	2056
108	0	0	2061
109	0	0	2067
110	0	0	2074
111	0	0	2067
112	0	0	2073
113	0	0	2063
114	0	0	2074
115	0	0	2065
116	0	0	2067
117	0	0	2070
118	0	0	2064
119	0	0	2068
120	0	0	2068
121	0	0	2066
122	0	0	2058
123	0	0	2069
124	0	0	2070
125	0	0	2066
126	0	0	2060
127	0	0	2053
0	0	0	2065
1	0	0	2072
2	0	0	2067
3	0	0	2059
4	0	0	2069
5	0	0	2065
6	0	0	2061
7	0	0	2059
8	0	0	2073
9	0	0	2070
10	0	0	2074
11	0	0	2075
12	0	0	2084
13	0	0	2074
14	0	0	2064
15	0	0	2061
16	0	0	2051
17	0	0	2055
18	0	0	2068
19	0	0	2064
20	0	0	2060
21	0	0	2052
22	0	0	2065
23	0	0	2078
24	0	0	2060
25	0	0	2067
26	0	0	2067
27	0	0	2074
28	0	0	2074
29	0	0	2053
30	0	0	2057
31	0	0	2067
32	0	0	2079
33	0	0	2088
34	0	0	2079
35	0	0	2066
36	0	0	2068
37	0	0	2058
38	0	0	2055
39	0	0	2067
40	0	0	2071
41	0	0	2072
42	0	0	2055
43	0	0	2050
44	0	0	2060
45	0	0	2075
46	0	0	2067
47	0	0	2052
48	0	0	2067
49	0	0	2065
50	0	0	2080
51	0	0	2079
52	0	0	2067
53	0	0	2062
54	0	0	2065
55	0	0	2066
56	0	0	2051
57	0	0	2059
58	0	0	2064
59	0	0	2063
60	0	0	2060
61	0	0	2063
62	0	0	2067
63	0	0	2070
64	0	0	2066
65	0	0	2075
66	0	0	2068
67	0	0	2061
68	0	0	2063
69	0	0	2068
70	0	0	2069
71	0	0	2061
72	0	0	2064
73	0	0	2073
74	0	0	2081
75	0	0	2059
76	0	0	2046
77	0	0	2065
78	0	0	2074
79	0	0	2063
80	0	0	2064
81	0	0	2066
82	0	0	2068
83	0	0	2070
84	0	0	2070
85	0	0	2066
86	0	0	2058
87	0	0	2062
88	0	0	2069
89	0	0	2063
90	0	0	2069
91	0	0	2073
92	0	0	2068
93	0	0	2061
94	0	0	2064
95	0	0	2062
96	0	0	2060
97	0	0	2060
98	0	0	2062
99	0	0	2074
100	0	0	2068
101	0	0	2049
102	0	0	2049
103	0	0	2065
104	0	0	2078
105	0	0	2092
106	0	0	2081
107	0	0	2081
108	0	0	2086
109	0	0	2069
110	0	0	2066
111	0	0	2046
112	0	0	2049
113	0	0	2055
114	0	0	2075
115	0	0	2065
116	0	0	2056
117	0	0	2059
118	0	0	2065
119	0	0	2059
120	0	0	2064
121	0	0	2066
122	0	0	2064
123	0	0	2066
124	0	0	2075
125	0	0	2086
126	0	0	2078
127	0	0	2051
0	0	0	2060
1	0	0	2068
2	0	0	2071
3	0	0	2065
4	0	0	2066
5	0	0	2067
6	0	0	2065
7	0	0	2066
8	0	0	2059
9	0	0	2066
10	0	0	2066
11	0	0	2076
12	0	0	2057
13	0	0	2068
14	0	0	2067
15	0	0	2064
16	0	0	2067
17	0	0	2067
18	0	0	2063
19	0	0	2066
20	0	0	2068
21	0	0	2068
22	0	0	2059
23	0	0	2072
24	0	0	2074
25	0	0	2061
26	0	0	2067
27	0	0	2060
28	0	0	2057
29	0	0	2061
30	0	0	2069
31	0	0	2070
32	0	0	2063
33	0	0	2065
34	0	0	2080
35	0	0	2079
36	0	0	2057
37	0	0	2060
38	0	0	2069
39	0	0	2068
40	0	0	2053
41	0	0	2044
42	0	0	2056
43	0	0	2070
44	0	0	2061
45	0	0	2077
46	0	0	2083
47	0	0	2082
48	0	0	2081
49	0	0	2080
50	0	0	2065
51	0	0	2059
52	0	0	2052
53	0	0	2055
54	0	0	2057
55	0	0	2059
56	0	0	2057
57	0	0	2060
58	0	0	2068
59	0	0	2071
60	0	0	2072
61	0	0	2062
62	0	0	2056
63	0	0	2067
64	0	0	2060
65	0	0	2061
66	0	0	2057
67	0	0	2060
68	0	0	2083
69	0	0	2085
70	0	0	2067
71	0	0	2069
72	0	0	2062
73	0	0	2067
74	0	0	2057
75	0	0	2058
76	0	0	2058
77	0	0	2072
78	0	0	2078
79	0	0	2067
80	0	0	2063
81	0	0	2064
82	0	0	2046
83	0	0	2059
84	0	0	2061
85	0	0	2074
86	0	0	2080
87	0	0	2080
88	0	0	2081
89	0	0	2079
90	0	0	2061
91	0	0	2052
92	0	0	2057
93	0	0	2060
94	0	0	2059
95	0	0	2063
96	0	0	2065
97	0	0	2080
98	0	0	2071
99	0	0	2068
100	0	0	2061
101	0	0	2059
102	0	0	2071
103	0	0	2066
104	0	0	2061
105	0	0	2067
106	0	0	2071
107	0	0	2066
108	0	0	2065
109	0	0	2062
110	0	0	2067
111	0	0	2066
112	0	0	2065
113	0	0	2060
114	0	0	2060
115	0	0	2063
116	0	0	2067
117	0	0	2074
118	0	0	2071
119	0	0	2061
120	0	0	2063
121	0	0	2063
122	0	0	2063
123	0	0	2059
124	0	0	2061
125	0	0	2067
126	0	0	2080
127	0	0	2073
0	0	0	2053
1	0	0	2066
2	0	0	2064
3	0	0	2069
4	0	0	2080
5	0	0	2075
6	0	0	2063
7	0	0	2057
8	0	0	2056
9	0	0	2058
10	0	0	2058
11	0	0	2066
12	0	0	2073
13	0	0	2071
14	0	0	2070
15	0	0	2071
16	0	0	2073
17	0	0	2058
18	0	0	2072
19	0	0	2066
20	0	0	2069
21	0	0	2077
22	0	0	2070
23	0	0	2055
24	0	0	2062
25	0	0	2067
26	0	0	2060
27	0	0	2061
28	0	0	2064
29	0	0	2068
30	0	0	2056
31	0	0	2064
32	0	0	2058
33	0	0	2064
34	0	0	2071
35	0	0	2063
36	0	0	2071
37	0	0	2068
38	0	0	2064
39	0	0	2076
40	0	0	2084
41	0	0	2077
42	0	0	2065
43	0	0	2059
44	0	0	2062
45	0	0	2057
46	0	0	2058
47	0	0	2060
48	0	0	2067
49	0	0	2076
50	0	0	2065
51	0	0	2066
52	0	0	2061
53	0	0	2061
54	0	0	2060
55	0	0	2056
56	0	0	2060
57	0	0	2062
58	0	0	2060
59	0	0	2068
60	0	0	2084
61	0	0	2097
62	0	0	2088
63	0	0	2075
64	0	0	2067
65	0	0	2048
66	0	0	2058
67	0	0	2061
68	0	0	2055
69	0	0	2059
70	0	0	2070
71	0	0	2061
72	0	0	2061
73	0	0	2061
74	0	0	2065
75	0	0	2074
76	0	0	2067
77	0	0	2065
78	0	0	2061
79	0	0	2050
80	0	0	2059
81	0	0	2076
82	0	0	2079
83	0	0	2068
84	0	0	2071
85	0	0	2064
86	0	0	2059
87	0	0	2060
88	0	0	2063
89	0	0	2068
90	0	0	2064
91	0	0	2059
92	0	0	2070
93	0	0	2067
94	0	0	2059
95	0	0	2062
96	0	0	2065
97	0	0	2062
98	0	0	2071
99	0	0	2065
100	0	0	2068
101	0	0	2064
102	0	0	2065
103	0	0	2068
104	0	0	2068
105	0	0	2062
106	0	0	2057
107	0	0	2061
108	0	0	2065
109	0	0	2074
110	0	0	2069
111	0	0	2074
112	0	0	2065
113	0	0	2080
114	0	0	2067
115	0	0	2059
116	0	0	2055
117	0	0	2063
118	0	0	2063
119	0	0	2056
120	0	0	2058
121	0	0	2060
122	0	0	2069
123	0	0	2064
124	0	0	2059
125	0	0	2065
126	0	0	2068
127	0	0	2065
0	0	0	2062
1	0	0	2060
2	0	0	2060
3	0	0	2071
4	0	0	2070
5	0	0	2064
6	0	0	2081
7	0	0	2058
8	0	0	2061
9	0	0	2064
10	0	0	2070
11	0	0	2069
12	0	0	2057
13	0	0	2067
14	0	0	2079
15	0	0	2068
16	0	0	2060
17	0	0	2070
18	0	0	2060
19	0	0	2069
20	0	0	2079
21	0	0	2082
22	0	0	2060
23	0	0	2046
24	0	0	2048
25	0	0	2060
26	0	0	2054
27	0	0	2072
28	0	0	2093
29	0	0	2071
30	0	0	2061
31	0	0	2052
32	0	0	2057
33	0	0	2072
34	0	0	2078
35	0	0	2069
36	0	0	2069
37	0	0	2065
38	0	0	2074
39	0	0	2083
40	0	0	2071
41	0	0	2062
42	0	0	2062
43	0	0	2061
44	0	0	2053
45	0	0	2059
46	0	0	2070
47	0	0	2064
48	0	0	2069
49	0	0	2066
50	0	0	2068
51	0	0	2058
52	0	0	2063
53	0	0	2066
54	0	0	2071
55	0	0	2068
56	0	0	2064
57	0	0	2068
58	0	0	2073
59	0	0	2064
60	0	0	2065
61	0	0	2058
62	0	0	2056
63	0	0	2062
64	0	0	2061
65	0	0	2058
66	0	0	2065
67	0	0	2072
68	0	0	2070
69	0	0	2087
70	0	0	2079
71	0	0	2075
72	0	0	2079
73	0	0	2067
74	0	0	2057
75	0	0	2055
76	0	0	2062
77	0	0	2063
78	0	0	2059
79	0	0	2057
80	0	0	2051
81	0	0	2060
82	0	0	2061
83	0	0	2068
84	0	0	2067
85	0	0	2064
86	0	0	2071
87	0	0	2080
88	0	0	2089
89	0	0	2067
90	0	0	2060
91	0	0	2046
92	0	0	2054
93	0	0	2071
94	0	0	2080
95	0	0	2067
96	0	0	2064
97	0	0	2062
98	0	0	2064
99	0	0	2062
100	0	0	2062
101	0	0	2064
102	0	0	2071
103	0	0	2068
104	0	0	2057
105	0	0	2066
106	0	0	2077
107	0	0	2075
108	0	0	2061
109	0	0	2054
110	0	0	2052
111	0	0	2067
112	0	0	2063
113	0	0	2064
114	0	0	2077
115	0	0	2071
116	0	0	2061
117	0	0	2061
118	0	0	2048
119	0	0	2054
120	0	0	2055
121	0	0	2076
122	0	0	2080
123	0	0	2076
124	0	0	2089
125	0	0	2085
126	0	0	2087
127	0	0	2083
0	0	0	2044
1	0	0	2044
2	0	0	2037
3	0	0	2047
4	0	0	2058
5	0	0	2062
6	0	0	2072
7	0	0	2070
8	0	0	2068
9	0	0	2064
10	0	0	2059
11	0	0	2069
12	0	0	2066
13	0	0	2064
14	0	0	2074
15	0	0	2055
16	0	0	2057
17	0	0	2061
18	0	0	2071
19	0	0	2073
20	0	0	2062
21	0	0	2057
22	0	0	2055
23	0	0	2060
24	0	0	2063
25	0	0	2058
26	0	0	2066
27	0	0	2076
28	0	0	2077
29	0	0	2082
30	0	0	2073
31	0	0	2069
32	0	0	2057
33	0	0	2068
34	0	0	2065
35	0	0	2060
36	0	0	2060
37	0	0	2070
38	0	0	2088
39	0	0	2071
40	0	0	2053
41	0	0	2063
42	0	0	2067
43	0	0	2059
44	0	0	2064
45	0	0	2062
46	0	0	2061
47	0	0	2059
48	0	0	2063
49	0	0	2064
50	0	0	2059
51	0	0	2057
52	0	0	2071
53	0	0	2072
54	0	0	2072
55	0	0	2064
56	0	0	2070
57	0	0	2071
58	0	0	2083
59	0	0	2061
60	0	0	2052
61	0	0	2062
62	0	0	2062
63	0	0	2056
64	0	0	2055
65	0	0	2057
66	0	0	2071
67	0	0	2078
68	0	0	2085
69	0	0	2077
70	0	0	2069
71	0	0	2061
72	0	0	2060
73	0	0	2058
74	0	0	2064
75	0	0	2076
76	0	0	2065
77	0	0	2056
78	0	0	2053
79	0	0	2066
80	0	0	2070
81	0	0	2068
82	0	0	2069
83	0	0	2074
84	0	0	2064
85	0	0	2060
86	0	0	2057
87	0	0	2059
88	0	0	2080
89	0	0	2068
90	0	0	2071
91	0	0	2084
92	0	0	2068
93	0	0	2058
94	0	0	2069
95	0	0	2061
96	0	0	2066
97	0	0	2071
98	0	0	2059
99	0	0	2058
100	0	0	2068
101	0	0	2066
102	0	0	2056
103	0	0	2064
104	0	0	2072
105	0	0	2076
106	0	0	2068
107	0	0	2061
108	0	0	2066
109	0	0	2063
110	0	0	2069
111	0	0	2070
112	0	0	2071
113	0	0	2067
114	0	0	2058
115	0	0	2069
116	0	0	2060
117	0	0	2063
118	0	0	2063
119	0	0	2058
120	0	0	2072
121	0	0	2076
122	0	0	2063
123	0	0	2066
124	0	0	2058
125	0	0	2068
126	0	0	2076
127	0	0	2067
0	0	0	2058
1	0	0	2059
2	0	0	2064
3	0	0	2064
4	0	0	2065
5	0	0	2057
6	0	0	2064
7	0	0	2064
8	0	0	2059
9	0	0	2067
10	0	0	2072
11	0	0	2052
12	0	0	2064
13	0	0	2072
14	0	0	2077
15	0	0	2074
16	0	0	2071
17	0	0	2075
18	0	0	2077
19	0	0	2064
20	0	0	2065
21	0	0	2059
22	0	0	2061
23	0	0	2058
24	0	0	2072
25	0	0	2063
26	0	0	2059
27	0	0	2052
28	0	0	2069
29	0	0	2064
30	0	0	2064
31	0	0	2060
32	0	0	2060
33	0	0	2061
34	0	0	2071
35	0	0	2078
36	0	0	2064
37	0	0	2062
38	0	0	2068
39	0	0	2073
40	0	0	2062
41	0	0	2057
42	0	0	2048
43	0	0	2067
44	0	0	2073
45	0	0	2076
46	0	0	2075
47	0	0	2082
48	0	0	2079
49	0	0	2079
50	0	0	2062
51	0	0	2046
52	0	0	2060
53	0	0	2061
54	0	0	2057
55	0	0	2055
56	0	0	2062
57	0	0	2065
58	0	0	2064
59	0	0	2064
60	0	0	2075
61	0	0	2070
62	0	0	2056
63	0	0	2061
64	0	0	2067
65	0	0	2066
66	0	0	2063
67	0	0	2069
68	0	0	2073
69	0	0	2080
70	0	0	2066
71	0	0	2048
72	0	0	2051
73	0	0	2065
74	0	0	2073
75	0	0	2064
76	0	0	2080
77	0	0	2063
78	0	0	2079
79	0	0	2072
80	0	0	2067
81	0	0	2067
82	0	0	2059
83	0	0	2061
84	0	0	2080
85	0	0	2063
86	0	0	2062
87	0	0	2064
88	0	0	2064
89	0	0	2066
90	0	0	2067
91	0	0	2065
92	0	0	2067
93	0	0	2071
94	0	0	2066
95	0	0	2062
96	0	0	2061
97	0	0	2064
98	0	0	2072
99	0	0	2058
100	0	0	2064
101	0	0	2070
102	0	0	2057
103	0	0	2063
104	0	0	2067
105	0	0	2062
106	0	0	2076
107	0	0	2093
108	0	0	2080
109	0	0	2053
110	0	0	2050
111	0	0	2054
112	0	0	2061
113	0	0	2060
114	0	0	2062
115	0	0	2060
116	0	0	2068
117	0	0	2077
118	0	0	2085
119	0	0	2075
120	0	0	2072
121	0	0	2063
122	0	0	2058
123	0	0	2058
124	0	0	2060
125	0	0	2058
126	0	0	2061
127	0	0	2066
0	0	0	2063
1	0	0	2060
2	0	0	2057
3	0	0	2069
4	0	0	2081
5	0	0	2075
6	0	0	2077
7	0	0	2070
8	0	0	2064
9	0	0	2064
10	0	0	2061
11	0	0	2052
12	0	0	2058
13	0	0	2068
14	0	0	2075
15	0	0	2072
16	0	0	2062
17	0	0	2059
18	0	0	2060
19	0	0	2065
20	0	0	2066
21	0	0	2075
22	0	0	2071
23	0	0	2059
24	0	0	2060
25	0	0	2060
26	0	0	2063
27	0	0	2063
28	0	0	2077
29	0	0	2075
30	0	0	2072
31	0	0	2064
32	0	0	2056
33	0	0	2064
34	0	0	2064
35	0	0	2060
36	0	0	2062
37	0	0	2062
38	0	0	2060
39	0	0	2080
40	0	0	2068
41	0	0	2065
42	0	0	2068
43	0	0	2061
44	0	0	2064
45	0	0	2068
46	0	0	2074
47	0	0	2077
48	0	0	2071
49	0	0	2068
50	0	0	2062
51	0	0	2061
52	0	0	2048
53	0	0	2075
54	0	0	2076
55	0	0	2066
56	0	0	2061
57	0	0	2058
58	0	0	2060
59	0	0	2068
60	0	0	2063
61	0	0	2068
62	0	0	2074
63	0	0	2066
64	0	0	2055
65	0	0	2057
66	0	0	2063
67	0	0	2060
68	0	0	2068
69	0	0	2068
70	0	0	2070
71	0	0	2072
72	0	0	2067
73	0	0	2073
74	0	0	2060
75	0	0	2070
76	0	0	2065
77	0	0	2063
78	0	0	2070
79	0	0	2065
80	0	0	2061
81	0	0	2061
82	0	0	2068
83	0	0	2065
84	0	0	2059
85	0	0	2070
86	0	0	2074
87	0	0	2072
88	0	0	2072
89	0	0	2066
90	0	0	2060
91	0	0	2058
92	0	0	2062
93	0	0	2069
94	0	0	2059
95	0	0	2072
96	0	0	2068
97	0	0	2066
98	0	0	2062
99	0	0	2062
100	0	0	2062
101	0	0	2068
102	0	0	2063
103	0	0	2072
104	0	0	2055
105	0	0	2069
106	0	0	2071
107	0	0	2069
108	0	0	2072
109	0	0	2058
110	0	0	2063
111	0	0	2061
112	0	0	2071
113	0	0	2064
114	0	0	2068
115	0	0	2060
116	0	0	2072
117	0	0	2073
118	0	0	2074
119	0	0	2070
120	0	0	2067
121	0	0	2067
122	0	0	2068
123	0	0	2061
124	0	0	2056
125	0	0	2051
126	0	0	2051
127	0	0	2068
0	0	0	2077
1	0	0	2063
2	0	0	2069
3	0	0	2076
4	0	0	2070
5	0	0	2069
6	0	0	2068
7	0	0	2061
8	0	0	2061
9	0	0	2061
10	0	0	2067
11	0	0	2071
12	0	0	2077
13	0	0	2064
14	0	0	2063
15	0	0	2062
16	0	0	2060
17	0	0	2060
18	0	0	2064
19	0	0	2057
20	0	0	2065
21	0	0	2072
22	0	0	2064
23	0	0	2070
24	0	0	2082
25	0	0	2062
26	0	0	2068
27	0	0	2060
28	0	0	2063
29	0	0	2069
30	0	0	2060
31	0	0	2063
32	0	0	2067
33	0	0	2066
34	0	0	2068
35	0	0	2061
36	0	0	2058
37	0	0	2064
38	0	0	2060
39	0	0	2073
40	0	0	2075
41	0	0	2077
42	0	0	2081
43	0	0	2068
44	0	0	2053
45	0	0	2057
46	0	0	2070
47	0	0	2062
48	0	0	2054
49	0	0	2064
50	0	0	2072
51	0	0	2072
52	0	0	2069
53	0	0	2066
54	0	0	2062
55	0	0	2059
56	0	0	2060
57	0	0	2059
58	0	0	2060
59	0	0	2076
60	0	0	2065
61	0	0	2081
62	0	0	2066
63	0	0	2065
64	0	0	2055
65	0	0	2058
66	0	0	2071
67	0	0	2072
68	0	0	2066
69	0	0	2058
70	0	0	2063
71	0	0	2076
72	0	0	2059
73	0	0	2061
74	0	0	2054
75	0	0	2060
76	0	0	2070
77	0	0	2075
78	0	0	2079
79	0	0	2070
80	0	0	2062
81	0	0	2058
82	0	0	2072
83	0	0	2073
84	0	0	2060
85	0	0	2060
86	0	0	2069
87	0	0	2066
88	0	0	2060
89	0	0	2063
90	0	0	2055
91	0	0	2067
92	0	0	2078
93	0	0	2077
94	0	0	2063
95	0	0	2059
96	0	0	2067
97	0	0	2070
98	0	0	2067
99	0	0	2054
100	0	0	2072
101	0	0	2070
102	0	0	2062
103	0	0	2056
104	0	0	2060
105	0	0	2063
106	0	0	2068
107	0	0	2069
108	0	0	2066
109	0	0	2062
110	0	0	2056
111	0	0	2053
112	0	0	2067
113	0	0	2068
114	0	0	2063
115	0	0	2073
116	0	0	2095
117	0	0	2096
118	0	0	2087
119	0	0	2068
120	0	0	2041
121	0	0	2049
122	0	0	2057
123	0	0	2053
124	0	0	2064
125	0	0	2068
126	0	0	2056
127	0	0	2065
0	0	0	2063
1	0	0	2064
2	0	0	2066
3	0	0	2066
4	0	0	2070
5	0	0	2066
6	0	0	2073
7	0	0	2070
8	0	0	2072
9	0	0	2055
10	0	0	2053
11	0	0	2072
12	0	0	2063
13	0	0	2058
14	0	0	2068
15	0	0	2071
16	0	0	2062
17	0	0	2067
18	0	0	2079
19	0	0	2097
20	0	0	2077
21	0	0	2072
22	0	0	2040
23	0	0	2058
24	0	0	2058
25	0	0	2050
26	0	0	2050
27	0	0	2053
28	0	0	2040
29	0	0	2057
30	0	0	2081
31	0	0	2091
32	0	0	2106
33	0	0	2096
34	0	0	2096
35	0	0	2083
36	0	0	2071
37	0	0	2057
38	0	0	2028
39	0	0	2043
40	0	0	2062
41	0	0	2056
42	0	0	2057
43	0	0	2055
44	0	0	2074
45	0	0	2071
46	0	0	2078
47	0	0	2061
48	0	0	2055
49	0	0	2056
50	0	0	2057
51	0	0	2070
52	0	0	2067
53	0	0	2065
54	0	0	2066
55	0	0	2070
56	0	0	2072
57	0	0	2067
58	0	0	2074
59	0	0	2068
60	0	0	2070
61	0	0	2061
62	0	0	2063
63	0	0	2059
64	0	0	2056
65	0	0	2050
66	0	0	2059
67	0	0	2072
68	0	0	2074
69	0	0	2074
70	0	0	2084
71	0	0	2074
72	0	0	2061
73	0	0	2060
74	0	0	2068
75	0	0	2075
76	0	0	2079
77	0	0	2055
78	0	0	2049
79	0	0	2056
80	0	0	2054
81	0	0	2060
82	0	0	2052
83	0	0	2063
84	0	0	2065
85	0	0	2060
86	0	0	2061
87	0	0	2076
88	0	0	2087
89	0	0	2092
90	0	0	2094
91	0	0	2074
92	0	0	2068
93	0	0	2057
94	0	0	2061
95	0	0	2052
96	0	0	2058
97	0	0	2055
98	0	0	2058
99	0	0	2068
100	0	0	2062
101	0	0	2061
102	0	0	2060
103	0	0	2063
104	0	0	2068
105	0	0	2071
106	0	0	2066
107	0	0	2071
108	0	0	2051
109	0	0	2075
110	0	0	2078
111	0	0	2038
112	0	0	2039
113	0	0	2053
114	0	0	2071
115	0	0	2067
116	0	0	2086
117	0	0	2082
118	0	0	2101
119	0	0	2083
120	0	0	2050
121	0	0	2056
122	0	0	2074
123	0	0	2068
124	0	0	2070
125	0	0	2061
126	0	0	2064
127	0	0	2063
0	0	0	2065
1	0	0	2055
2	0	0	2048
3	0	0	2052
4	0	0	2060
5	0	0	2062
6	0	0	2067
7	0	0	2067
8	0	0	2062
9	0	0	2060
10	0	0	2077
11	0	0	2066
12	0	0	2071
13	0	0	2076
14	0	0	2060
15	0	0	2066
16	0	0	2077
17	0	0	2064
18	0	0	2060
19	0	0	2060
20	0	0	2065
21	0	0	2065
22	0	0	2064
23	0	0	2067
24	0	0	2071
25	0	0	2072
26	0	0	2074
27	0	0	2074
28	0	0	2068
29	0	0	2058
30	0	0	2060
31	0	0	2070
32	0	0	2063
33	0	0	2055
34	0	0	2063
35	0	0	2064
36	0	0	2055
37	0	0	2055
38	0	0	2069
39	0	0	2065
40	0	0	2063
41	0	0	2065
42	0	0	2079
43	0	0	2086
44	0	0	2084
45	0	0	2066
46	0	0	2052
47	0	0	2048
48	0	0	2059
49	0	0	2073
50	0	0	2058
51	0	0	2067
52	0	0	2070
53	0	0	2066
54	0	0	2064
55	0	0	2062
56	0	0	2063
57	0	0	2058
58	0	0	2061
59	0	0	2065
60	0	0	2066
61	0	0	2063
62	0	0	2070
63	0	0	2072
64	0	0	2085
65	0	0	2067
66	0	0	2054
67	0	0	2060
68	0	0	2068
69	0	0	2070
70	0	0	2068
71	0	0	2081
72	0	0	2077
73	0	0	2060
74	0	0	2046
75	0	0	2061
76	0	0	2062
77	0	0	2064
78	0	0	2066
79	0	0	2065
80	0	0	2059
81	0	0	2052
82	0	0	2052
83	0	0	2059
84	0	0	2063
85	0	0	2062
86	0	0	2068
87	0	0	2083
88	0	0	2093
89	0	0	2078
90	0	0	2074
91	0	0	2080
92	0	0	2063
93	0	0	2054
94	0	0	2059
95	0	0	2051
96	0	0	2051
97	0	0	2057
98	0	0	2062
99	0	0	2059
100	0	0	2064
101	0	0	2061
102	0	0	2067
103	0	0	2059
104	0	0	2065
105	0	0	2068
106	0	0	2072
107	0	0	2075
108	0	0	2061
109	0	0	2057
110	0	0	2075
111	0	0	2068
112	0	0	2060
113	0	0	2067
114	0	0	2081
115	0	0	2080
116	0	0	2078
117	0	0	2072
118	0	0	2058
119	0	0	2062
120	0	0	2063
121	0	0	2061
122	0	0	2066
123	0	0	2065
124	0	0	2061
125	0	0	2045
126	0	0	2046
127	0	0	2028
0	0	0	2039
1	0	0	2064
2	0	0	2085
3	0	0	2094
4	0	0	2098
5	0	0	2108
6	0	0	2109
7	0	0	2084
8	0	0	2077
9	0	0	2045
10	0	0	2024
11	0	0	2042
12	0	0	2042
13	0	0	2043
14	0	0	2044
15	0	0	2043
16	0	0	2056
17	0	0	2076
18	0	0	2097
19	0	0	2107
20	0	0	2109
21	0	0	2080
22	0	0	2070
23	0	0	2058
24	0	0	2029
25	0	0	2019
26	0	0	2045
27	0	0	2058
28	0	0	2062
29	0	0	2081
30	0	0	2105
31	0	0	2094
32	0	0	2073
33	0	0	2049
34	0	0	2052
35	0	0	2052
36	0	0	2062
37	0	0	2061
38	0	0	2066
39	0	0	2090
40	0	0	2117
41	0	0	2090
42	0	0	2032
43	0	0	2032
44	0	0	2051
45	0	0	2059
46	0	0	2064
47	0	0	2062
48	0	0	2056
49	0	0	2066
50	0	0	2081
51	0	0	2067
52	0	0	2054
53	0	0	2042
54	0	0	2038
55	0	0	2055
56	0	0	2064
57	0	0	2083
58	0	0	2091
59	0	0	2098
60	0	0	2107
61	0	0	2108
62	0	0	2076
63	0	0	2047
64	0	0	2036
65	0	0	2039
66	0	0	2057
67	0	0	2057
68	0	0	2062
69	0	0	2066
70	0	0	2065
71	0	0	2066
72	0	0	2060
73	0	0	2055
74	0	0	2055
75	0	0	2065
76	0	0	2066
77	0	0	2064
78	0	0	2060
79	0	0	2061
80	0	0	2055
81	0	0	2060
82	0	0	2077
83	0	0	2083
84	0	0	2078
85	0	0	2088
86	0	0	2080
87	0	0	2093
88	0	0	2050
89	0	0	2000
90	0	0	2039
91	0	0	2071
92	0	0	2077
93	0	0	2072
94	0	0	2070
95	0	0	2094
96	0	0	2085
97	0	0	2094
98	0	0	2064
99	0	0	2055
100	0	0	2085
101	0	0	2077
102	0	0	2048
103	0	0	2053
104	0	0	2066
105	0	0	2066
106	0	0	2035
107	0	0	2039
108	0	0	2058
109	0	0	2066
110	0	0	2075
111	0	0	2067
112	0	0	2065
113	0	0	2059
114	0	0	2065
115	0	0	2066
116	0	0	2056
117	0	0	2069
118	0	0	2074
119	0	0	2085
120	0	0	2072
121	0	0	2070
122	0	0	2074
123	0	0	2069
124	0	0	2064
125	0	0	2053
126	0	0	2060
127	0	0	2062
0	0	0	2064
1	0	0	2061
2	0	0	2066
3	0	0	2068
4	0	0	2068
5	0	0	2069
6	0	0	2060
7	0	0	2056
8	0	0	2084
9	0	0	2091
10	0	0	2054
11	0	0	2051
12	0	0	2071
13	0	0	2077
14	0	0	2073
15	0	0	2071
16	0	0	2074
17	0	0	2068
18	0	0	2060
19	0	0	2043
20	0	0	2056
21	0	0	2070
22	0	0	2079
23	0	0	2065
24	0	0	2068
25	0	0	2069
26	0	0	2060
27	0	0	2060
28	0	0	2064
29	0	0	2061
30	0	0	2055
31	0	0	2058
32	0	0	2061
33	0	0	2055
34	0	0	2059
35	0	0	2077
36	0	0	2073
37	0	0	2088
38	0	0	2071
39	0	0	2078
40	0	0	2069
41	0	0	2060
42	0	0	2062
43	0	0	2052
44	0	0	2063
45	0	0	2075
46	0	0	2076
47	0	0	2072
48	0	0	2060
49	0	0	2071
50	0	0	2080
51	0	0	2060
52	0	0	2061
53	0	0	2069
54	0	0	2049
55	0	0	2061
56	0	0	2071
57	0	0	2067
58	0	0	2051
59	0	0	2068
60	0	0	2065
61	0	0	2065
62	0	0	2074
63	0	0	2066
64	0	0	2061
65	0	0	2057
66	0	0	2074
67	0	0	2091
68	0	0	2079
69	0	0	2057
70	0	0	2052
71	0	0	2066
72	0	0	2068
73	0	0	2060
74	0	0	2066
75	0	0	2068
76	0	0	2065
77	0	0	2059
78	0	0	2058
79	0	0	2059
80	0	0	2081
81	0	0	2086
82	0	0	2079
83	0	0	2065
84	0	0	2050
85	0	0	2060
86	0	0	2062
87	0	0	2064
88	0	0	2061
89	0	0	2069
90	0	0	2061
91	0	0	2062
92	0	0	2074
93	0	0	2071
94	0	0	2055
95	0	0	2071
96	0	0	2072
97	0	0	2060
98	0	0	2062
99	0	0	2059
100	0	0	2074
101	0	0	2062
102	0	0	2055
103	0	0	2055
104	0	0	2061
105	0	0	2071
106	0	0	2077
107	0	0	2075
108	0	0	2085
109	0	0	2089
110	0	0	2088
111	0	0	2053
112	0	0	2045
113	0	0	2049
114	0	0	2055
115	0	0	2071
116	0	0	2044
117	0	0	2054
118	0	0	2078
119	0	0	2064
120	0	0	2050
121	0	0	2069
122	0	0	2077
123	0	0	2082
124	0	0	2082
125	0	0	2068
126	0	0	2065
127	0	0	2066
0	0	0	2067
1	0	0	2049
2	0	0	2052
3	0	0	2049
4	0	0	2062
5	0	0	2068
6	0	0	2053
7	0	0	2065
8	0	0	2060
9	0	0	2071
10	0	0	2062
11	0	0	2086
12	0	0	2105
13	0	0	2083
14	0	0	2054
15	0	0	2068
16	0	0	2078
17	0	0	2063
18	0	0	2064
19	0	0	2046
20	0	0	2043
21	0	0	2052
22	0	0	2074
23	0	0	2061
24	0	0	2063
25	0	0	2057
26	0	0	2067
27	0	0	2072
28	0	0	2067
29	0	0	2064
30	0	0	2070
31	0	0	2062
32	0	0	2066
33	0	0	2082
34	0	0	2075
35	0	0	2059
36	0	0	2068
37	0	0	2057
38	0	0	2067
39	0	0	2055
40	0	0	2057
41	0	0	2076
42	0	0	2080
43	0	0	2066
44	0	0	2079
45	0	0	2087
46	0	0	2070
47	0	0	2067
48	0	0	2048
49	0	0	2051
50	0	0	2059
51	0	0	2068
52	0	0	2077
53	0	0	2066
54	0	0	2058
55	0	0	2063
56	0	0	2061
57	0	0	2065
58	0	0	2068
59	0	0	2071
60	0	0	2077
61	0	0	2070
62	0	0	2056
63	0	0	2055
64	0	0	2070
65	0	0	2063
66	0	0	2056
67	0	0	2066
68	0	0	2074
69	0	0	2077
70	0	0	2061
71	0	0	2067
72	0	0	2082
73	0	0	2072
74	0	0	2067
75	0	0	2067
76	0	0	2060
77	0	0	2053
78	0	0	2055
79	0	0	2054
80	0	0	2066
81	0	0	2071
82	0	0	2094
83	0	0	2074
84	0	0	2071
85	0	0	2063
86	0	0	2062
87	0	0	2072
88	0	0	2064
89	0	0	2057
90	0	0	2061
91	0	0	2064
92	0	0	2041
93	0	0	2049
94	0	0	2065
95	0	0	2055
96	0	0	2051
97	0	0	2073
98	0	0	2069
99	0	0	2093
100	0	0	2091
101	0	0	2091
102	0	0	2087
103	0	0	2101
104	0	0	2042
105	0	0	2040
106	0	0	2042
107	0	0	2045
108	0	0	2046
109	0	0	2055
110	0	0	2067
111	0	0	2068
112	0	0	2078
113	0	0	2090
114	0	0	2097
115	0	0	2070
116	0	0	2054
117	0	0	2040
118	0	0	2053
119	0	0	2056
120	0	0	2055
121	0	0	2064
122	0	0	2056
123	0	0	2045
124	0	0	2059
125	0	0	2070
126	0	0	2087
127	0	0	2088
0	0	0	2092
1	0	0	2079
2	0	0	2079
3	0	0	2059
4	0	0	2065
5	0	0	2051
6	0	0	2053
7	0	0	2080
8	0	0	2067
9	0	0	2054
10	0	0	2058
11	0	0	2068
12	0	0	2067
13	0	0	2063
14	0	0	2059
15	0	0	2059
16	0	0	2059
17	0	0	2062
18	0	0	2056
19	0	0	2055
20	0	0	2056
21	0	0	2069
22	0	0	2085
23	0	0	2085
24	0	0	2087
25	0	0	2095
26	0	0	2094
27	0	0	2076
28	0	0	2062
29	0	0	2082
30	0	0	2069
31	0	0	2066
32	0	0	2077
33	0	0	2048
34	0	0	2030
35	0	0	2038
36	0	0	2046
37	0	0	2063
38	0	0	2068
39	0	0	2082
40	0	0	2077
41	0	0	2060
42	0	0	2054
43	0	0	2056
44	0	0	2067
45	0	0	2068
46	0	0	2071
47	0	0	2074
48	0	0	2062
49	0	0	2041
50	0	0	2062
51	0	0	2080
52	0	0	2077
53	0	0	2079
54	0	0	2075
55	0	0	2076
56	0	0	2073
57	0	0	2077
58	0	0	2069
59	0	0	2059
60	0	0	2068
61	0	0	2058
62	0	0	2059
63	0	0	2060
64	0	0	2087
65	0	0	2065
66	0	0	2065
67	0	0	2048
68	0	0	2055
69	0	0	2056
70	0	0	2072
71	0	0	2070
72	0	0	2073
73	0	0	2060
74	0	0	2060
75	0	0	2079
76	0	0	2065
77	0	0	2058
78	0	0	2072
79	0	0	2067
80	0	0	2077
81	0	0	2077
82	0	0	2058
83	0	0	2064
84	0	0	2053
85	0	0	2060
86	0	0	2046
87	0	0	2062
88	0	0	2074
89	0	0	2088
90	0	0	2069
91	0	0	2061
92	0	0	2074
93	0	0	2080
94	0	0	2088
95	0	0	2077
96	0	0	2069
97	0	0	2056
98	0	0	2044
99	0	0	2008
100	0	0	2009
101	0	0	2071
102	0	0	2091
103	0	0	2104
104	0	0	2116
105	0	0	2119
106	0	0	2093
107	0	0	2053
108	0	0	2030
109	0	0	2027
110	0	0	2043
111	0	0	2057
112	0	0	2054
113	0	0	2077
114	0	0	2064
115	0	0	2055
116	0	0	2070
117	0	0	2062
118	0	0	2066
119	0	0	2057
120	0	0	2051
121	0	0	2043
122	0	0	2044
123	0	0	2065
124	0	0	2073
125	0	0	2069
126	0	0	2083
127	0	0	2098
0	0	0	2110
1	0	0	2097
2	0	0	2057
3	0	0	2036
4	0	0	2038
5	0	0	2045
6	0	0	2038
7	0	0	2032
8	0	0	2077
9	0	0	2080
10	0	0	2083
11	0	0	2082
12	0	0	2097
13	0	0	2110
14	0	0	2056
15	0	0	2046
16	0	0	2049
17	0	0	2024
18	0	0	2027
19	0	0	2050
20	0	0	2056
21	0	0	2068
22	0	0	2078
23	0	0	2100
24	0	0	2101
25	0	0	2100
26	0	0	2069
27	0	0	2044
28	0	0	2047
29	0	0	2039
30	0	0	2038
31	0	0	2050
32	0	0	2058
33	0	0	2058
34	0	0	2057
35	0	0	2075
36	0	0	2092
37	0	0	2090
38	0	0	2068
39	0	0	2063
40	0	0	2082
41	0	0	2087
42	0	0	2077
43	0	0	2049
44	0	0	2059
45	0	0	2077
46	0	0	2059
47	0	0	2044
48	0	0	2044
49	0	0	2044
50	0	0	2060
51	0	0	2058
52	0	0	2061
53	0	0	2078
54	0	0	2097
55	0	0	2110
56	0	0	2064
57	0	0	2070
58	0	0	2073
59	0	0	2039
60	0	0	2040
61	0	0	2064
62	0	0	2062
63	0	0	2082
64	0	0	2087
65	0	0	2078
66	0	0	2074
67	0	0	2051
68	0	0	2065
69	0	0	2064
70	0	0	2060
71	0	0	2060
72	0	0	2082
73	0	0	2078
74	0	0	2061
75	0	0	2058
76	0	0	2055
77	0	0	2056
78	0	0	2062
79	0	0	2037
80	0	0	2063
81	0	0	2098
82	0	0	2094
83	0	0	2062
84	0	0	2058
85	0	0	2069
86	0	0	2073
87	0	0	2084
88	0	0	2087
89	0	0	2076
90	0	0	2071
91	0	0	2039
92	0	0	2054
93	0	0	2067
94	0	0	2070
95	0	0	2071
96	0	0	2074
97	0	0	2059
98	0	0	2048
99	0	0	2053
100	0	0	2056
101	0	0	2053
102	0	0	2052
103	0	0	2081
104	0	0	2108
105	0	0	2093
106	0	0	2071
107	0	0	2052
108	0	0	2036
109	0	0	2045
110	0	0	2058
111	0	0	2073
112	0	0	2063
113	0	0	2071
114	0	0	2084
115	0	0	2082
116	0	0	2066
117	0	0	2052
118	0	0	2059
119	0	0	2067
120	0	0	2073
121	0	0	2054
122	0	0	2044
123	0	0	2060
124	0	0	2060
125	0	0	2051
126	0	0	2074
127	0	0	2078
0	0	0	2088
1	0	0	2071
2	0	0	2055
3	0	0	2027
4	0	0	2035
5	0	0	2043
6	0	0	2051
7	0	0	2075
8	0	0	2094
9	0	0	2100
10	0	0	2068
11	0	0	2068
12	0	0	2062
13	0	0	2076
14	0	0	2059
15	0	0	2088
16	0	0	2085
17	0	0	2059
18	0	0	2055
19	0	0	2038
20	0	0	2048
21	0	0	2044
22	0	0	2060
23	0	0	2063
24	0	0	2071
25	0	0	2063
26	0	0	2054
27	0	0	2043
28	0	0	2053
29	0	0	2065
30	0	0	2065
31	0	0	2080
32	0	0	2098
33	0	0	2085
34	0	0	2078
35	0	0	2049
36	0	0	2052
37	0	0	2056
38	0	0	2093
39	0	0	2061
40	0	0	2041
41	0	0	2069
42	0	0	2066
43	0	0	2073
44	0	0	2120
45	0	0	2126
46	0	0	2113
47	0	0	2067
48	0	0	2033
49	0	0	2038
50	0	0	2025
51	0	0	2028
52	0	0	2077
53	0	0	2052
54	0	0	2052
55	0	0	2056
56	0	0	2001
57	0	0	2010
58	0	0	2070
59	0	0	2122
60	0	0	2113
61	0	0	2134
62	0	0	2152
63	0	0	2089
64	0	0	2036
65	0	0	1973
66	0	0	2018
67	0	0	2057
68	0	0	2038
69	0	0	2087
70	0	0	2136
71	0	0	2136
72	0	0	2067
73	0	0	2042
74	0	0	2032
75	0	0	2038
76	0	0	2044
77	0	0	2049
78	0	0	2043
79	0	0	2070
80	0	0	2031
81	0	0	2057
82	0	0	2065
83	0	0	2103
84	0	0	2074
85	0	0	2082
86	0	0	2049
87	0	0	2050
88	0	0	2104
89	0	0	2116
90	0	0	2055
91	0	0	2038
92	0	0	2044
93	0	0	2033
94	0	0	2060
95	0	0	2066
96	0	0	2095
97	0	0	2113
98	0	0	2138
99	0	0	2048
100	0	0	2027
101	0	0	2085
102	0	0	2063
103	0	0	2052
104	0	0	2062
105	0	0	2104
106	0	0	2098
107	0	0	2064
108	0	0	2048
109	0	0	2028
110	0	0	2039
111	0	0	2038
112	0	0	1996
113	0	0	1996
114	0	0	2032
115	0	0	2055
116	0	0	2095
117	0	0	2204
118	0	0	2256
119	0	0	2166
120	0	0	1988
121	0	0	2027
122	0	0	2039
123	0	0	2032
124	0	0	2076
125	0	0	2086
126	0	0	2064
127	0	0	2004
0	0	0	2016
1	0	0	2043
2	0	0	2045
3	0	0	2058
4	0	0	2091
5	0	0	2063
6	0	0	2087
7	0	0	2060
8	0	0	2048
9	0	0	2111
10	0	0	2198
11	0	0	2131
12	0	0	2028
13	0	0	2005
14	0	0	2009
15	0	0	2013
16	0	0	2020
17	0	0	2037
18	0	0	2087
19	0	0	2091
20	0	0	2071
21	0	0	2069
22	0	0	2058
23	0	0	2073
24	0	0	2107
25	0	0	2050
26	0	0	2039
27	0	0	2074
28	0	0	2140
29	0	0	2108
30	0	0	2062
31	0	0	2022
32	0	0	2035
33	0	0	2034
34	0	0	2045
35	0	0	2075
36	0	0	2079
37	0	0	2059
38	0	0	2050
39	0	0	2036
40	0	0	2041
41	0	0	2056
42	0	0	2078
43	0	0	2141
44	0	0	2100
45	0	0	1989
46	0	0	1976
47	0	0	2038
48	0	0	2133
49	0	0	2100
50	0	0	2096
51	0	0	2160
52	0	0	2199
53	0	0	2156
54	0	0	2042
55	0	0	1975
56	0	0	1993
57	0	0	2015
58	0	0	2036
59	0	0	2049
60	0	0	2045
61	0	0	2061
62	0	0	2060
63	0	0	2043
64	0	0	2033
65	0	0	2039
66	0	0	2076
67	0	0	2054
68	0	0	2058
69	0	0	2070
70	0	0	2082
71	0	0	2028
72	0	0	2053
73	0	0	2070
74	0	0	2123
75	0	0	2148
76	0	0	2109
77	0	0	2089
78	0	0	2055
79	0	0	2011
80	0	0	2005
81	0	0	2050
82	0	0	2035
83	0	0	2051
84	0	0	2125
85	0	0	2140
86	0	0	2061
87	0	0	2051
88	0	0	2088
89	0	0	2102
90	0	0	2033
91	0	0	2007
92	0	0	2028
93	0	0	2046
94	0	0	2073
95	0	0	2096
96	0	0	2079
97	0	0	2072
98	0	0	2042
99	0	0	2056
100	0	0	2041
101	0	0	2040
102	0	0	2038
103	0	0	2062
104	0	0	2045
105	0	0	2034
106	0	0	2085
107	0	0	2150
108	0	0	2094
109	0	0	2054
110	0	0	2020
111	0	0	1994
112	0	0	2033
113	0	0	2082
114	0	0	2171
115	0	0	2120
116	0	0	2063
117	0	0	2086
118	0	0	2088
119	0	0	2037
120	0	0	2089
121	0	0	2121
122	0	0	2040
123	0	0	1976
124	0	0	1984
125	0	0	1991
126	0	0	2078
127	0	0	2114
0	0	0	2167
1	0	0	2100
2	0	0	2066
3	0	0	2089
4	0	0	2085
5	0	0	1993
6	0	0	2008
7	0	0	2031
8	0	0	2075
9	0	0	2096
10	0	0	2116
11	0	0	2096
12	0	0	2131
13	0	0	2062
14	0	0	1961
15	0	0	1974
16	0	0	1977
17	0	0	1977
18	0	0	2084
19	0	0	2265
20	0	0	2229
21	0	0	2135
22	0	0	2081
23	0	0	2082
24	0	0	2035
25	0	0	2000
26	0	0	2018
27	0	0	2025
28	0	0	2036
29	0	0	2048
30	0	0	2041
31	0	0	2051
32	0	0	2052
33	0	0	2054
34	0	0	2079
35	0	0	2051
36	0	0	2067
37	0	0	2044
38	0	0	2058
39	0	0	2078
40	0	0	2108
41	0	0	2104
42	0	0	2062
43	0	0	2057
44	0	0	2070
45	0	0	2058
46	0	0	2042
47	0	0	2060
48	0	0	2076
49	0	0	2060
50	0	0	2040
51	0	0	2013
52	0	0	2023
53	0	0	2057
54	0	0	2106
55	0	0	2134
56	0	0	2179
57	0	0	2097
58	0	0	2015
59	0	0	2065
60	0	0	2040
61	0	0	2026
62	0	0	2039
63	0	0	2036
64	0	0	2036
65	0	0	2013
66	0	0	2011
67	0	0	2035
68	0	0	2158
69	0	0	2156
70	0	0	2191
71	0	0	2134
72	0	0	2036
73	0	0	2014
74	0	0	2040
75	0	0	2011
76	0	0	2024
77	0	0	2064
78	0	0	2069
79	0	0	2024
80	0	0	2091
81	0	0	2116
82	0	0	2049
83	0	0	2030
84	0	0	2045
85	0	0	2063
86	0	0	2051
87	0	0	2039
88	0	0	2077
89	0	0	2090
90	0	0	2114
91	0	0	2127
92	0	0	2101
93	0	0	2025
94	0	0	2058
95	0	0	2049
96	0	0	2042
97	0	0	2057
98	0	0	2040
99	0	0	2022
100	0	0	2049
101	0	0	2070
102	0	0	2060
103	0	0	2071
104	0	0	2107
105	0	0	2100
106	0	0	2072
107	0	0	2072
108	0	0	2083
109	0	0	2081
110	0	0	2067
111	0	0	2050
112	0	0	2044
113	0	0	2045
114	0	0	2048
115	0	0	2055
116	0	0	2061
117	0	0	2059
118	0	0	2063
119	0	0	2070
120	0	0	2072
121	0	0	2089
122	0	0	2066
123	0	0	2061
124	0	0	2067
125	0	0	2070
126	0	0	2063
127	0	0	2067
0	0	0	2066
1	0	0	2068
2	0	0	2063
3	0	0	2060
4	0	0	2060
5	0	0	2066
6	0	0	2073
7	0	0	2072
8	0	0	2065
9	0	0	2068
10	0	0	2065
11	0	0	2067
12	0	0	2070
13	0	0	2067
14	0	0	2061
15	0	0	2064
16	0	0	2070
17	0	0	2068
18	0	0	2063
19	0	0	2064
20	0	0	2065
21	0	0	2053
22	0	0	2060
23	0	0	2064
24	0	0	2066
25	0	0	2071
26	0	0	2061
27	0	0	2067
28	0	0	2065
29	0	0	2066
30	0	0	2071
31	0	0	2089
32	0	0	2080
33	0	0	2073
34	0	0	2062
35	0	0	2073
36	0	0	2064
37	0	0	2056
38	0	0	2051
39	0	0	2046
40	0	0	2057
41	0	0	2059
42	0	0	2063
43	0	0	2073
44	0	0	2061
45	0	0	2062
46	0	0	2080
47	0	0	2082
48	0	0	2076
49	0	0	2062
50	0	0	2060
51	0	0	2051
52	0	0	2071
53	0	0	2066
54	0	0	2063
55	0	0	2061
56	0	0	2063
57	0	0	2073
58	0	0	2077
59	0	0	2082
60	0	0	2065
61	0	0	2045
62	0	0	2062
63	0	0	2087
64	0	0	2070
65	0	0	2069
66	0	0	2082
67	0	0	2057
68	0	0	2060
69	0	0	2063
70	0	0	2054
71	0	0	2052
72	0	0	2042
73	0	0	2052
74	0	0	2063
75	0	0	2072
76	0	0	2071
77	0	0	2060
78	0	0	2060
79	0	0	2070
80	0	0	2080
81	0	0	2062
82	0	0	2078
83	0	0	2083
84	0	0	2069
85	0	0	2076
86	0	0	2077
87	0	0	2062
88	0	0	2051
89	0	0	2070
90	0	0	2070
91	0	0	2079
92	0	0	2075
93	0	0	2065
94	0	0	2039
95	0	0	2035
96	0	0	2066
97	0	0	2086
98	0	0	2063
99	0	0	2077
100	0	0	2076
101	0	0	2077
102	0	0	2070
103	0	0	2065
104	0	0	2057
105	0	0	2061
106	0	0	2060
107	0	0	2062
108	0	0	2067
109	0	0	2064
110	0	0	2070
111	0	0	2071
112	0	0	2082
113	0	0	2079
114	0	0	2065
115	0	0	2050
116	0	0	2045
117	0	0	2066
118	0	0	2068
119	0	0	2078
120	0	0	2092
121	0	0	2101
122	0	0	2103
123	0	0	2054
124	0	0	2048
125	0	0	2039
126	0	0	2048
127	0	0	2056
0	0	0	2068
1	0	0	2069
2	0	0	2073
3	0	0	2079
4	0	0	2080
5	0	0	2092
6	0	0	2097
7	0	0	2088
8	0	0	2048
9	0	0	2034
10	0	0	2039
11	0	0	2051
12	0	0	2073
13	0	0	2088
14	0	0	2073
15	0	0	2063
16	0	0	2064
17	0	0	2061
18	0	0	2066
19	0	0	2065
20	0	0	2063
21	0	0	2072
22	0	0	2070
23	0	0	2067
24	0	0	2052
25	0	0	2059
26	0	0	2076
27	0	0	2070
28	0	0	2068
29	0	0	2054
30	0	0	2064
31	0	0	2063
32	0	0	2064
33	0	0	2072
34	0	0	2064
35	0	0	2071
36	0	0	2066
37	0	0	2061
38	0	0	2038
39	0	0	2044
40	0	0	2076
41	0	0	2082
42	0	0	2082
43	0	0	2102
44	0	0	2089
45	0	0	2082
46	0	0	2074
47	0	0	2065
48	0	0	2045
49	0	0	2041
50	0	0	2045
51	0	0	2053
52	0	0	2067
53	0	0	2046
54	0	0	2057
55	0	0	2074
56	0	0	2081
57	0	0	2063
58	0	0	2062
59	0	0	2053
60	0	0	2066
61	0	0	2077
62	0	0	2080
63	0	0	2061
64	0	0	2057
65	0	0	2064
66	0	0	2062
67	0	0	2061
68	0	0	2062
69	0	0	2063
70	0	0	2071
71	0	0	2083
72	0	0	2077
73	0	0	2087
74	0	0	2066
75	0	0	2050
76	0	0	2056
77	0	0	2056
78	0	0	2065
79	0	0	2072
80	0	0	2082
81	0	0	2078
82	0	0	2073
83	0	0	2066
84	0	0	2061
85	0	0	2063
86	0	0	2071
87	0	0	2056
88	0	0	2053
89	0	0	2048
90	0	0	2029
91	0	0	2059
92	0	0	2071
93	0	0	2083
94	0	0	2094
95	0	0	2104
96	0	0	2130
97	0	0	2110
98	0	0	2036
99	0	0	2020
100	0	0	2042
101	0	0	2058
102	0	0	2073
103	0	0	2060
104	0	0	2060
105	0	0	2049
106	0	0	2067
107	0	0	2085
108	0	0	2062
109	0	0	2037
110	0	0	2044
111	0	0	2058
112	0	0	2070
113	0	0	2083
114	0	0	2077
115	0	0	2077
116	0	0	2070
117	0	0	2044
118	0	0	2022
119	0	0	2048
120	0	0	2063
121	0	0	2077
122	0	0	2098
123	0	0	2100
124	0	0	2113
125	0	0	2116
126	0	0	2042
127	0	0	2011
0	0	0	2028
1	0	0	2040
2	0	0	2064
3	0	0	2076
4	0	0	2080
5	0	0	2094
6	0	0	2067
7	0	0	2051
8	0	0	2049
9	0	0	2072
10	0	0	2060
11	0	0	2055
12	0	0	2078
13	0	0	2076
14	0	0	2056
15	0	0	2051
16	0	0	2065
17	0	0	2059
18	0	0	2055
19	0	0	2063
20	0	0	2070
21	0	0	2067
22	0	0	2062
23	0	0	2077
24	0	0	2065
25	0	0	2068
26	0	0	2074
27	0	0	2076
28	0	0	2062
29	0	0	2062
30	0	0	2071
31	0	0	2069
32	0	0	2063
33	0	0	2081
34	0	0	2068
35	0	0	2082
36	0	0	2064
37	0	0	2055
38	0	0	2059
39	0	0	2055
40	0	0	2063
41	0	0	2065
42	0	0	2065
43	0	0	2070
44	0	0	2079
45	0	0	2073
46	0	0	2067
47	0	0	2051
48	0	0	2062
49	0	0	2065
50	0	0	2061
51	0	0	2063
52	0	0	2065
53	0	0	2067
54	0	0	2083
55	0	0	2082
56	0	0	2073
57	0	0	2076
58	0	0	2072
59	0	0	2055
60	0	0	2076
61	0	0	2081
62	0	0	2104
63	0	0	2063
64	0	0	2059
65	0	0	2038
66	0	0	2052
67	0	0	2062
68	0	0	2062
69	0	0	2063
70	0	0	2063
71	0	0	2055
72	0	0	2060
73	0	0	2059
74	0	0	2069
75	0	0	2085
76	0	0	2081
77	0	0	2070
78	0	0	2080
79	0	0	2074
80	0	0	2059
81	0	0	2063
82	0	0	2075
83	0	0	2057
84	0	0	2052
85	0	0	2046
86	0	0	2060
87	0	0	2085
88	0	0	2087
89	0	0	2068
90	0	0	2047
91	0	0	2058
92	0	0	2084
93	0	0	2070
94	0	0	2061
95	0	0	2074
96	0	0	2079
97	0	0	2073
98	0	0	2067
99	0	0	2053
100	0	0	2068
101	0	0	2059
102	0	0	2046
103	0	0	2057
104	0	0	2059
105	0	0	2074
106	0	0	2082
107	0	0	2058
108	0	0	2071
109	0	0	2072
110	0	0	2068
111	0	0	2065
112	0	0	2070
113	0	0	2065
114	0	0	2058
115	0	0	2057
116	0	0	2058
117	0	0	2054
118	0	0	2057
119	0	0	2066
120	0	0	2086
121	0	0	2076
122	0	0	2071
123	0	0	2067
124	0	0	2075
125	0	0	2063
126	0	0	2058
127	0	0	2067
0	0	0	2058
1	0	0	2062
2	0	0	2060
3	0	0	2066
4	0	0	2067
5	0	0	2063
6	0	0	2056
7	0	0	2062
8	0	0	2078
9	0	0	2061
10	0	0	2067
11	0	0	2065
12	0	0	2058
13	0	0	2057
14	0	0	2058
15	0	0	2063
16	0	0	2080
17	0	0	2068
18	0	0	2063
19	0	0	2057
20	0	0	2066
21	0	0	2066
22	0	0	2055
23	0	0	2056
24	0	0	2058
25	0	0	2080
26	0	0	2091
27	0	0	2078
28	0	0	2071
29	0	0	2087
30	0	0	2084
31	0	0	2063
32	0	0	2042
33	0	0	2063
34	0	0	2059
35	0	0	2057
36	0	0	2064
37	0	0	2068
38	0	0	2063
39	0	0	2056
40	0	0	2051
41	0	0	2043
42	0	0	2049
43	0	0	2069
44	0	0	2079
45	0	0	2084
46	0	0	2093
47	0	0	2086
48	0	0	2074
49	0	0	2062
50	0	0	2052
51	0	0	2053
52	0	0	2054
53	0	0	2061
54	0	0	2065
55	0	0	2061
56	0	0	2061
57	0	0	2063
58	0	0	2064
59	0	0	2076
60	0	0	2081
61	0	0	2076
62	0	0	2075
63	0	0	2060
64	0	0	2033
65	0	0	2062
66	0	0	2075
67	0	0	2074
68	0	0	2066
69	0	0	2068
70	0	0	2090
71	0	0	2084
72	0	0	2049
73	0	0	2039
74	0	0	2068
75	0	0	2059
76	0	0	2059
77	0	0	2061
78	0	0	2066
79	0	0	2076
80	0	0	2068
81	0	0	2067
82	0	0	2070
83	0	0	2052
84	0	0	2051
85	0	0	2059
86	0	0	2068
87	0	0	2072
88	0	0	2083
89	0	0	2096
90	0	0	2100
91	0	0	2067
92	0	0	2057
93	0	0	2052
94	0	0	2051
95	0	0	2057
96	0	0	2067
97	0	0	2064
98	0	0	2059
99	0	0	2057
100	0	0	2053
101	0	0	2077
102	0	0	2071
103	0	0	2072
104	0	0	2046
105	0	0	2061
106	0	0	2064
107	0	0	2060
108	0	0	2056
109	0	0	2078
110	0	0	2087
111	0	0	2088
112	0	0	2087
113	0	0	2076
114	0	0	2071
115	0	0	2051
116	0	0	2050
117	0	0	2044
118	0	0	2044
119	0	0	2062
120	0	0	2070
121	0	0	2071
122	0	0	2081
123	0	0	2085
124	0	0	2070
125	0	0	2070
126	0	0	2071
127	0	0	2074
0	0	0	2063
1	0	0	2057
2	0	0	2060
3	0	0	2062
4	0	0	2067
5	0	0	2068
6	0	0	2066
7	0	0	2057
8	0	0	2061
9	0	0	2069
10	0	0	2064
11	0	0	2067
12	0	0	2065
13	0	0	2072
14	0	0	2083
15	0	0	2065
16	0	0	2050
17	0	0	2049
18	0	0	2065
19	0	0	2065
20	0	0	2083
21	0	0	2087
22	0	0	2069
23	0	0	2064
24	0	0	2060
25	0	0	2065
26	0	0	2064
27	0	0	2059
28	0	0	2045
29	0	0	2066
30	0	0	2072
31	0	0	2067
32	0	0	2067
33	0	0	2076
34	0	0	2078
35	0	0	2095
36	0	0	2082
37	0	0	2067
38	0	0	2048
39	0	0	2045
40	0	0	2059
41	0	0	2067
42	0	0	2061
43	0	0	2062
44	0	0	2065
45	0	0	2062
46	0	0	2056
47	0	0	2060
48	0	0	2073
49	0	0	2055
50	0	0	2049
51	0	0	2070
52	0	0	2087
53	0	0	2071
54	0	0	2059
55	0	0	2056
56	0	0	2050
57	0	0	2054
58	0	0	2068
59	0	0	2073
60	0	0	2090
61	0	0	2095
62	0	0	2086
63	0	0	2067
64	0	0	2044
65	0	0	2052
66	0	0	2064
67	0	0	2062
68	0	0	2059
69	0	0	2065
70	0	0	2057
71	0	0	2054
72	0	0	2049
73	0	0	2061
74	0	0	2076
75	0	0	2090
76	0	0	2078
77	0	0	2050
78	0	0	2060
79	0	0	2038
80	0	0	2059
81	0	0	2069
82	0	0	2075
83	0	0	2068
84	0	0	2062
85	0	0	2086
86	0	0	2079
87	0	0	2072
88	0	0	2059
89	0	0	2053
90	0	0	2062
91	0	0	2071
92	0	0	2068
93	0	0	2073
94	0	0	2090
95	0	0	2110
96	0	0	2085
97	0	0	2053
98	0	0	2031
99	0	0	2051
100	0	0	2056
101	0	0	2055
102	0	0	2054
103	0	0	2061
104	0	0	2056
105	0	0	2059
106	0	0	2066
107	0	0	2063
108	0	0	2078
109	0	0	2070
110	0	0	2065
111	0	0	2062
112	0	0	2077
113	0	0	2063
114	0	0	2072
115	0	0	2056
116	0	0	2040
117	0	0	2062
118	0	0	2074
119	0	0	2079
120	0	0	2073
121	0	0	2075
122	0	0	2079
123	0	0	2062
124	0	0	2062
125	0	0	2059
126	0	0	2057
127	0	0	2075
0	0	0	2075
1	0	0	2063
2	0	0	2042
3	0	0	2046
4	0	0	2062
5	0	0	2080
6	0	0	2073
7	0	0	2068
8	0	0	2076
9	0	0	2070
10	0	0	2061
11	0	0	2046
12	0	0	2064
13	0	0	2088
14	0	0	2079
15	0	0	2075
16	0	0	2050
17	0	0	2052
18	0	0	2073
19	0	0	2059
20	0	0	2053
21	0	0	2051
22	0	0	2062
23	0	0	2063
24	0	0	2083
25	0	0	2073
26	0	0	2081
27	0	0	2079
28	0	0	2068
29	0	0	2067
30	0	0	2064
31	0	0	2042
32	0	0	2054
33	0	0	2063
34	0	0	2055
35	0	0	2053
36	0	0	2062
37	0	0	2093
38	0	0	2097
39	0	0	2087
40	0	0	2053
41	0	0	2064
42	0	0	2055
43	0	0	2073
44	0	0	2061
45	0	0	2067
46	0	0	2072
47	0	0	2041
48	0	0	2038
49	0	0	2056
50	0	0	2056
51	0	0	2071
52	0	0	2073
53	0	0	2085
54	0	0	2094
55	0	0	2078
56	0	0	2054
57	0	0	2062
58	0	0	2066
59	0	0	2074
60	0	0	2044
61	0	0	2046
62	0	0	2035
63	0	0	2068
64	0	0	2090
65	0	0	2079
66	0	0	2075
67	0	0	2078
68	0	0	2081
69	0	0	2067
70	0	0	2072
71	0	0	2069
72	0	0	2044
73	0	0	2039
74	0	0	2056
75	0	0	2053
76	0	0	2053
77	0	0	2069
78	0	0	2079
79	0	0	2062
80	0	0	2065
81	0	0	2066
82	0	0	2061
83	0	0	2053
84	0	0	2057
85	0	0	2050
86	0	0	2064
87	0	0	2064
88	0	0	2073
89	0	0	2064
90	0	0	2108
91	0	0	2078
92	0	0	2044
93	0	0	2067
94	0	0	2079
95	0	0	2086
96	0	0	2068
97	0	0	2072
98	0	0	2064
99	0	0	2069
100	0	0	2059
101	0	0	2031
102	0	0	2034
103	0	0	2063
104	0	0	2084
105	0	0	2062
106	0	0	2081
107	0	0	2103
108	0	0	2064
109	0	0	2039
110	0	0	2019
111	0	0	2009
112	0	0	2046
113	0	0	2090
114	0	0	2099
115	0	0	2103
116	0	0	2081
117	0	0	2092
118	0	0	2066
119	0	0	2084
120	0	0	2073
121	0	0	2090
122	0	0	2064
123	0	0	2055
124	0	0	2043
125	0	0	2039
126	0	0	1997
127	0	0	2018
0	0	0	2057
1	0	0	2083
2	0	0	2114
3	0	0	2154
4	0	0	2123
5	0	0	2071
6	0	0	2056
7	0	0	2067
8	0	0	2024
9	0	0	2013
10	0	0	2036
11	0	0	2062
12	0	0	2046
13	0	0	2069
14	0	0	2069
15	0	0	2069
16	0	0	2066
17	0	0	2071
18	0	0	2086
19	0	0	2096
20	0	0	2053
21	0	0	2073
22	0	0	2077
23	0	0	2063
24	0	0	2102
25	0	0	2059
26	0	0	2015
27	0	0	2024
28	0	0	2054
29	0	0	2079
30	0	0	2084
31	0	0	2082
32	0	0	2071
33	0	0	2061
34	0	0	2063
35	0	0	2085
36	0	0	2080
37	0	0	2096
38	0	0	2054
39	0	0	2030
40	0	0	2034
41	0	0	2052
42	0	0	2096
43	0	0	2077
44	0	0	2059
45	0	0	2088
46	0	0	2061
47	0	0	2023
48	0	0	2051
49	0	0	2067
50	0	0	2077
51	0	0	2034
52	0	0	2034
53	0	0	2035
54	0	0	2036
55	0	0	2006
56	0	0	2051
57	0	0	2127
58	0	0	2212
59	0	0	2253
60	0	0	2182
61	0	0	2041
62	0	0	1997
63	0	0	1976
64	0	0	2011
65	0	0	2052
66	0	0	2026
67	0	0	2024
68	0	0	2039
69	0	0	2046
70	0	0	2037
71	0	0	2058
72	0	0	2086
73	0	0	2143
74	0	0	2052
75	0	0	2037
76	0	0	2062
77	0	0	2124
78	0	0	2093
79	0	0	2129
80	0	0	2145
81	0	0	2040
82	0	0	1998
83	0	0	1957
84	0	0	2013
85	0	0	2080
86	0	0	2114
87	0	0	2089
88	0	0	2059
89	0	0	2054
90	0	0	2110
91	0	0	2119
92	0	0	2043
93	0	0	2021
94	0	0	2011
95	0	0	1970
96	0	0	2009
97	0	0	2029
98	0	0	2062
99	0	0	2161
100	0	0	2176
101	0	0	2136
102	0	0	2103
103	0	0	2140
104	0	0	2073
105	0	0	2053
106	0	0	2102
107	0	0	2046
108	0	0	1997
109	0	0	1979
110	0	0	2018
111	0	0	2052
112	0	0	2071
113	0	0	2045
114	0	0	2087
115	0	0	2110
116	0	0	2093
117	0	0	2090
118	0	0	2024
119	0	0	2052
120	0	0	2051
121	0	0	2077
122	0	0	2069
123	0	0	2048
124	0	0	2060
125	0	0	2061
126	0	0	2053
127	0	0	2016
0	0	0	2036
1	0	0	2028
2	0	0	2031
3	0	0	2074
4	0	0	2147
5	0	0	2166
6	0	0	2143
7	0	0	2108
8	0	0	2000
9	0	0	1976
10	0	0	2084
11	0	0	2139
12	0	0	2076
13	0	0	2032
14	0	0	2073
15	0	0	2048
16	0	0	2087
17	0	0	2064
18	0	0	2016
19	0	0	2039
20	0	0	2039
21	0	0	2074
22	0	0	2090
23	0	0	2052
24	0	0	2069
25	0	0	2064
26	0	0	2069
27	0	0	2049
28	0	0	2051
29	0	0	2085
30	0	0	2078
31	0	0	2024
32	0	0	2044
33	0	0	2043
34	0	0	1975
35	0	0	2020
36	0	0	2117
37	0	0	2141
38	0	0	2190
39	0	0	2170
40	0	0	2126
41	0	0	2037
42	0	0	2019
43	0	0	2031
44	0	0	2027
45	0	0	2021
46	0	0	2027
47	0	0	2039
48	0	0	2064
49	0	0	2065
50	0	0	2055
51	0	0	1996
52	0	0	2019
53	0	0	2102
54	0	0	2101
55	0	0	2083
56	0	0	2171
57	0	0	2197
58	0	0	2088
59	0	0	1990
60	0	0	2013
61	0	0	2067
62	0	0	2054
63	0	0	2039
64	0	0	2063
65	0	0	1995
66	0	0	1980
67	0	0	2013
68	0	0	2039
69	0	0	2113
70	0	0	2222
71	0	0	2204
72	0	0	2115
73	0	0	1957
74	0	0	1951
75	0	0	1993
76	0	0	2126
77	0	0	2203
78	0	0	2219
79	0	0	2131
80	0	0	2026
81	0	0	1989
82	0	0	1991
83	0	0	1943
84	0	0	1999
85	0	0	2029
86	0	0	2017
87	0	0	2124
88	0	0	2212
89	0	0	2123
90	0	0	2025
91	0	0	2029
92	0	0	2065
93	0	0	1999
94	0	0	1991
95	0	0	2010
96	0	0	2051
97	0	0	2101
98	0	0	2147
99	0	0	2114
100	0	0	2132
101	0	0	2144
102	0	0	2118
103	0	0	2021
104	0	0	1983
105	0	0	2032
106	0	0	2066
107	0	0	2116
108	0	0	2070
109	0	0	2035
110	0	0	1994
111	0	0	1990
112	0	0	2009
113	0	0	2030
114	0	0	2081
115	0	0	2204
116	0	0	2170
117	0	0	2099
118	0	0	2030
119	0	0	1978
120	0	0	1972
121	0	0	2006
122	0	0	2113
123	0	0	2167
124	0	0	2160
125	0	0	2081
126	0	0	2085
127	0	0	2048
0	0	0	2042
1	0	0	2043
2	0	0	2054
3	0	0	2016
4	0	0	1941
5	0	0	1922
6	0	0	1922
7	0	0	2097
8	0	0	2286
9	0	0	2299
10	0	0	2339
11	0	0	2258
12	0	0	1961
13	0	0	1870
14	0	0	1964
15	0	0	2015
16	0	0	2019
17	0	0	2008
18	0	0	1982
19	0	0	1987
20	0	0	1971
21	0	0	2053
22	0	0	2142
23	0	0	2190
24	0	0	2249
25	0	0	2143
26	0	0	2068
27	0	0	2066
28	0	0	2093
29	0	0	2063
30	0	0	1955
31	0	0	1918
32	0	0	1982
33	0	0	1997
34	0	0	2055
35	0	0	2155
36	0	0	2181
37	0	0	2109
38	0	0	2087
39	0	0	2093
40	0	0	2214
41	0	0	2107
42	0	0	1991
43	0	0	1958
44	0	0	2027
45	0	0	2056
46	0	0	2059
47	0	0	2036
48	0	0	2030
49	0	0	2033
50	0	0	2063
51	0	0	2110
52	0	0	2092
53	0	0	2063
54	0	0	2058
55	0	0	2055
56	0	0	2056
57	0	0	2044
58	0	0	2056
59	0	0	2055
60	0	0	2013
61	0	0	1994
62	0	0	1972
63	0	0	2082
64	0	0	2094
65	0	0	2254
66	0	0	2335
67	0	0	2175
68	0	0	1965
69	0	0	1933
70	0	0	1997
71	0	0	2034
72	0	0	2049
73	0	0	2031
74	0	0	2023
75	0	0	2018
76	0	0	2069
77	0	0	2080
78	0	0	2034
79	0	0	2029
80	0	0	2080
81	0	0	2054
82	0	0	2154
83	0	0	2228
84	0	0	2229
85	0	0	2118
86	0	0	2038
87	0	0	1964
88	0	0	1984
89	0	0	2010
90	0	0	2032
91	0	0	2046
92	0	0	2067
93	0	0	2036
94	0	0	1989
95	0	0	1987
96	0	0	2046
97	0	0	2087
98	0	0	2189
99	0	0	2232
100	0	0	2054
101	0	0	1941
102	0	0	1934
103	0	0	1967
104	0	0	2147
105	0	0	2316
106	0	0	2220
107	0	0	2082
108	0	0	2024
109	0	0	1987
110	0	0	2000
111	0	0	2055
112	0	0	2052
113	0	0	2011
114	0	0	2041
115	0	0	2048
116	0	0	2049
117	0	0	2134
118	0	0	2171
119	0	0	2057
120	0	0	2026
121	0	0	2070
122	0	0	2053
123	0	0	2044
124	0	0	2058
125	0	0	2054
126	0	0	2057
127	0	0	2064
0	0	0	2063
1	0	0	2065
2	0	0	2076
3	0	0	2060
4	0	0	2076
5	0	0	2090
6	0	0	2063
7	0	0	2031
8	0	0	1971
9	0	0	1947
10	0	0	2007
11	0	0	2124
12	0	0	2284
13	0	0	2355
14	0	0	2113
15	0	0	1939
16	0	0	1955
17	0	0	2015
18	0	0	2040
19	0	0	2039
20	0	0	2043
21	0	0	2067
22	0	0	2066
23	0	0	2077
24	0	0	2077
25	0	0	2078
26	0	0	2067
27	0	0	2054
28	0	0	2039
29	0	0	2052
30	0	0	2069
31	0	0	2064
32	0	0	2064
33	0	0	2051
34	0	0	2072
35	0	0	2071
36	0	0	2059
37	0	0	2062
38	0	0	2081
39	0	0	2094
40	0	0	2085
41	0	0	2066
42	0	0	2056
43	0	0	2052
44	0	0	2049
45	0	0	2051
46	0	0	2063
47	0	0	2076
48	0	0	2059
49	0	0	2060
50	0	0	2067
51	0	0	2065
52	0	0	2067
53	0	0	2072
54	0	0	2077
55	0	0	2074
56	0	0	2056
57	0	0	2043
58	0	0	2049
59	0	0	2058
60	0	0	2058
61	0	0	2060
62	0	0	2058
63	0	0	2070
64	0	0	2081
65	0	0	2071
66	0	0	2081
67	0	0	2053
68	0	0	2059
69	0	0	2061
70	0	0	2055
71	0	0	2053
72	0	0	2061
73	0	0	2068
74	0	0	2082
75	0	0	2080
76	0	0	2068
77	0	0	2052
78	0	0	2065
79	0	0	2055
80	0	0	2065
81	0	0	2093
82	0	0	2059
83	0	0	2035
84	0	0	2041
85	0	0	2054
86	0	0	2031
87	0	0	2029
88	0	0	2052
89	0	0	2079
90	0	0	2085
91	0	0	2084
92	0	0	2092
93	0	0	2114
94	0	0	2118
95	0	0	2103
96	0	0	2050
97	0	0	2029
98	0	0	2027
99	0	0	2025
100	0	0	2030
101	0	0	2040
102	0	0	2039
103	0	0	2084
104	0	0	2082
105	0	0	2091
106	0	0	2081
107	0	0	2085
108	0	0	2056
109	0	0	2077
110	0	0	2104
111	0	0	2082
112	0	0	2066
113	0	0	2087
114	0	0	2055
115	0	0	2028
116	0	0	2023
117	0	0	2052
118	0	0	2075
119	0	0	2081
120	0	0	2096
121	0	0	2085
122	0	0	2075
123	0	0	2074
124	0	0	2038
125	0	0	2044
126	0	0	2070
127	0	0	2087
0	0	0	2088
1	0	0	2080
2	0	0	2070
3	0	0	2067
4	0	0	2065
5	0	0	2070
6	0	0	2062
7	0	0	2052
8	0	0	2049
9	0	0	2046
10	0	0	2067
11	0	0	2063
12	0	0	2075
13	0	0	2086
14	0	0	2086
15	0	0	2101
16	0	0	2114
17	0	0	2032
18	0	0	2022
19	0	0	2080
20	0	0	2080
21	0	0	2075
22	0	0	2053
23	0	0	2068
24	0	0	2072
25	0	0	2064
26	0	0	2070
27	0	0	2076
28	0	0	2065
29	0	0	2065
30	0	0	2071
31	0	0	2068
32	0	0	2067
33	0	0	2057
34	0	0	2060
35	0	0	2049
36	0	0	2055
37	0	0	2069
38	0	0	2078
39	0	0	2089
40	0	0	2088
41	0	0	2074
42	0	0	2077
43	0	0	2040
44	0	0	2044
45	0	0	2035
46	0	0	2022
47	0	0	2072
48	0	0	2103
49	0	0	2157
50	0	0	2151
51	0	0	2099
52	0	0	2079
53	0	0	2049
54	0	0	2011
55	0	0	2015
56	0	0	2030
57	0	0	2025
58	0	0	2040
59	0	0	2089
60	0	0	2089
61	0	0	2090
62	0	0	2062
63	0	0	2079
64	0	0	2088
65	0	0	2074
66	0	0	2041
67	0	0	2096
68	0	0	2103
69	0	0	2099
70	0	0	2069
71	0	0	2052
72	0	0	2040
73	0	0	2005
74	0	0	1993
75	0	0	2033
76	0	0	2054
77	0	0	2013
78	0	0	2045
79	0	0	2116
80	0	0	2148
81	0	0	2167
82	0	0	2130
83	0	0	2067
84	0	0	2012
85	0	0	1998
86	0	0	2029
87	0	0	2052
88	0	0	2040
89	0	0	2057
90	0	0	2081
91	0	0	2058
92	0	0	2060
93	0	0	2091
94	0	0	2120
95	0	0	2088
96	0	0	2076
97	0	0	2092
98	0	0	2049
99	0	0	2011
100	0	0	2003
101	0	0	1990
102	0	0	2009
103	0	0	2068
104	0	0	2139
105	0	0	2161
106	0	0	2159
107	0	0	2167
108	0	0	2122
109	0	0	2064
110	0	0	2034
111	0	0	2029
112	0	0	1985
113	0	0	1995
114	0	0	2018
115	0	0	2061
116	0	0	2075
117	0	0	2051
118	0	0	2060
119	0	0	2080
120	0	0	2077
121	0	0	2018
122	0	0	2060
123	0	0	2086
124	0	0	2084
125	0	0	2093
126	0	0	2064
127	0	0	2065
0	0	0	2082
1	0	0	2076
2	0	0	2024
3	0	0	2031
4	0	0	2103
5	0	0	2026
6	0	0	2026
7	0	0	2124
8	0	0	2226
9	0	0	2252
10	0	0	2167
11	0	0	2070
12	0	0	1985
13	0	0	1922
14	0	0	1959
15	0	0	2023
16	0	0	2059
17	0	0	2071
18	0	0	2092
19	0	0	2096
20	0	0	2062
21	0	0	2050
22	0	0	2036
23	0	0	2033
24	0	0	2049
25	0	0	2052
26	0	0	2038
27	0	0	2065
28	0	0	2118
29	0	0	2101
30	0	0	2055
31	0	0	2078
32	0	0	2128
33	0	0	2082
34	0	0	2061
35	0	0	2073
36	0	0	2083
37	0	0	2062
38	0	0	2070
39	0	0	2054
40	0	0	2031
41	0	0	2051
42	0	0	2049
43	0	0	2038
44	0	0	2033
45	0	0	2064
46	0	0	2088
47	0	0	2088
48	0	0	2110
49	0	0	2104
50	0	0	2074
51	0	0	2021
52	0	0	2022
53	0	0	2063
54	0	0	2104
55	0	0	2073
56	0	0	2058
57	0	0	2074
58	0	0	2062
59	0	0	2050
60	0	0	2054
61	0	0	2042
62	0	0	2053
63	0	0	2048
64	0	0	2044
65	0	0	2067
66	0	0	2099
67	0	0	2094
68	0	0	2101
69	0	0	2108
70	0	0	2076
71	0	0	2024
72	0	0	2082
73	0	0	2070
74	0	0	2060
75	0	0	2049
76	0	0	2037
77	0	0	2037
78	0	0	2067
79	0	0	2074
80	0	0	2057
81	0	0	2049
82	0	0	2069
83	0	0	2052
84	0	0	2045
85	0	0	2090
86	0	0	2107
87	0	0	2117
88	0	0	2089
89	0	0	2035
90	0	0	2027
91	0	0	2045
92	0	0	2065
93	0	0	2084
94	0	0	2092
95	0	0	2076
96	0	0	2037
97	0	0	2038
98	0	0	2072
99	0	0	2086
100	0	0	2086
101	0	0	2067
102	0	0	2077
103	0	0	2048
104	0	0	2042
105	0	0	2062
106	0	0	2060
107	0	0	2056
108	0	0	2079
109	0	0	2101
110	0	0	2051
111	0	0	2060
112	0	0	2044
113	0	0	2049
114	0	0	2070
115	0	0	2073
116	0	0	2062
117	0	0	2079
118	0	0	2070
119	0	0	2067
120	0	0	2080
121	0	0	2082
122	0	0	2086
123	0	0	2069
124	0	0	2048
125	0	0	1998
126	0	0	2034
127	0	0	2076
0	0	0	2136
1	0	0	2146
2	0	0	2105
3	0	0	2064
4	0	0	2009
5	0	0	2019
6	0	0	2051
7	0	0	2054
8	0	0	2068
9	0	0	2041
10	0	0	2053
11	0	0	2059
12	0	0	2086
13	0	0	2110
14	0	0	2073
15	0	0	2045
16	0	0	2066
17	0	0	2071
18	0	0	2069
19	0	0	2041
20	0	0	2033
21	0	0	2055
22	0	0	2099
23	0	0	2076
24	0	0	2068
25	0	0	2059
26	0	0	2052
27	0	0	2044
28	0	0	2042
29	0	0	2059
30	0	0	2055
31	0	0	2067
32	0	0	2069
33	0	0	2090
34	0	0	2084
35	0	0	2108
36	0	0	2111
37	0	0	2091
38	0	0	2076
39	0	0	2049
40	0	0	2022
41	0	0	2032
42	0	0	2054
43	0	0	2051
44	0	0	2054
45	0	0	2062
46	0	0	2069
47	0	0	2065
48	0	0	2073
49	0	0	2096
50	0	0	2080
51	0	0	2056
52	0	0	2042
53	0	0	2057
54	0	0	2062
55	0	0	2073
56	0	0	2065
57	0	0	2066
58	0	0	2075
59	0	0	2062
60	0	0	2046
61	0	0	2039
62	0	0	2050
63	0	0	2064
64	0	0	2076
65	0	0	2081
66	0	0	2066
67	0	0	2064
68	0	0	2104
69	0	0	2105
70	0	0	2090
71	0	0	2103
72	0	0	2054
73	0	0	2035
74	0	0	2049
75	0	0	2069
76	0	0	2040
77	0	0	2043
78	0	0	2053
79	0	0	2054
80	0	0	2059
81	0	0	2062
82	0	0	2059
83	0	0	2059
84	0	0	2068
85	0	0	2073
86	0	0	2068
87	0	0	2078
88	0	0	2080
89	0	0	2079
90	0	0	2070
91	0	0	2052
92	0	0	2049
93	0	0	2051
94	0	0	2074
95	0	0	2090
96	0	0	2078
97	0	0	2050
98	0	0	2040
99	0	0	2057
100	0	0	2060
101	0	0	2074
102	0	0	2090
103	0	0	2081
104	0	0	2067
105	0	0	2060
106	0	0	2077
107	0	0	2094
108	0	0	2059
109	0	0	2060
110	0	0	2066
111	0	0	2051
112	0	0	2070
113	0	0	2070
114	0	0	2063
115	0	0	2046
116	0	0	2058
117	0	0	2064
118	0	0	2058
119	0	0	2072
120	0	0	2070
121	0	0	2048
122	0	0	2060
123	0	0	2065
124	0	0	2084
125	0	0	2099
126	0	0	2073
127	0	0	2074
0	0	0	2067
1	0	0	2053
2	0	0	2016
3	0	0	2037
4	0	0	2058
5	0	0	2079
6	0	0	2107
7	0	0	2119
8	0	0	2138
9	0	0	2049
10	0	0	2039
11	0	0	2044
12	0	0	2054
13	0	0	2054
14	0	0	2050
15	0	0	2052
16	0	0	2050
17	0	0	2048
18	0	0	2063
19	0	0	2066
20	0	0	2063
21	0	0	2061
22	0	0	2065
23	0	0	2082
24	0	0	2099
25	0	0	2088
26	0	0	2083
27	0	0	2059
28	0	0	2055
29	0	0	2041
30	0	0	2060
31	0	0	2068
32	0	0	2069
33	0	0	2065
34	0	0	2071
35	0	0	2067
36	0	0	2068
37	0	0	2071
38	0	0	2056
39	0	0	2059
40	0	0	2076
41	0	0	2051
42	0	0	2046
43	0	0	2065
44	0	0	2080
45	0	0	2086
46	0	0	2080
47	0	0	2066
48	0	0	2086
49	0	0	2072
50	0	0	2049
51	0	0	2050
52	0	0	2055
53	0	0	2063
54	0	0	2080
55	0	0	2061
56	0	0	2059
57	0	0	2058
58	0	0	2067
59	0	0	2075
60	0	0	2071
61	0	0	2070
62	0	0	2064
63	0	0	2054
64	0	0	2053
65	0	0	2084
66	0	0	2069
67	0	0	2066
68	0	0	2060
69	0	0	2062
70	0	0	2073
71	0	0	2054
72	0	0	2069
73	0	0	2077
74	0	0	2091
75	0	0	2060
76	0	0	2015
77	0	0	2049
78	0	0	2066
79	0	0	2084
80	0	0	2059
81	0	0	2057
82	0	0	2060
83	0	0	2061
84	0	0	2071
85	0	0	2085
86	0	0	2121
87	0	0	2085
88	0	0	2051
89	0	0	2036
90	0	0	2024
91	0	0	2021
92	0	0	2052
93	0	0	2077
94	0	0	2094
95	0	0	2101
96	0	0	2093
97	0	0	2065
98	0	0	2063
99	0	0	2044
100	0	0	2040
101	0	0	2040
102	0	0	2040
103	0	0	2068
104	0	0	2064
105	0	0	2085
106	0	0	2100
107	0	0	2085
108	0	0	2055
109	0	0	2075
110	0	0	2090
111	0	0	2051
112	0	0	2042
113	0	0	2049
114	0	0	2056
115	0	0	2066
116	0	0	2072
117	0	0	2064
118	0	0	2081
119	0	0	2059
120	0	0	2058
121	0	0	2080
122	0	0	2098
123	0	0	2070
124	0	0	2049
125	0	0	2046
126	0	0	2069
127	0	0	2068
0	0	0	2060
1	0	0	2070
2	0	0	2059
3	0	0	2062
4	0	0	2051
5	0	0	2051
6	0	0	2104
7	0	0	2087
8	0	0	2101
9	0	0	2086
10	0	0	2062
11	0	0	2046
12	0	0	2060
13	0	0	2071
14	0	0	2058
15	0	0	2050
16	0	0	2055
17	0	0	2048
18	0	0	2050
19	0	0	2069
20	0	0	2059
21	0	0	2063
22	0	0	2056
23	0	0	2065
24	0	0	2072
25	0	0	2066
26	0	0	2066
27	0	0	2069
28	0	0	2070
29	0	0	2055
30	0	0	2066
31	0	0	2079
32	0	0	2075
33	0	0	2080
34	0	0	2074
35	0	0	2063
36	0	0	2053
37	0	0	2070
38	0	0	2061
39	0	0	2066
40	0	0	2061
41	0	0	2066
42	0	0	2070
43	0	0	2069
44	0	0	2057
45	0	0	2059
46	0	0	2064
47	0	0	2067
48	0	0	2084
49	0	0	2067
50	0	0	2054
51	0	0	2056
52	0	0	2075
53	0	0	2067
54	0	0	2056
55	0	0	2064
56	0	0	2057
57	0	0	2066
58	0	0	2078
59	0	0	2087
60	0	0	2052
61	0	0	2057
62	0	0	2074
63	0	0	2054
64	0	0	2043
65	0	0	2055
66	0	0	2083
67	0	0	2095
68	0	0	2095
69	0	0	2075
70	0	0	2076
71	0	0	2073
72	0	0	2045
73	0	0	2028
74	0	0	2055
75	0	0	2083
76	0	0	2099
77	0	0	2098
78	0	0	2050
79	0	0	2028
80	0	0	2042
81	0	0	2039
82	0	0	2057
83	0	0	2058
84	0	0	2080
85	0	0	2067
86	0	0	2055
87	0	0	2065
88	0	0	2085
89	0	0	2104
90	0	0	2075
91	0	0	2089
92	0	0	2082
93	0	0	2043
94	0	0	2022
95	0	0	2040
96	0	0	2040
97	0	0	2068
98	0	0	2089
99	0	0	2089
100	0	0	2078
101	0	0	2097
102	0	0	2069
103	0	0	2023
104	0	0	2057
105	0	0	2046
106	0	0	2075
107	0	0	2090
108	0	0	2080
109	0	0	2055
110	0	0	2056
111	0	0	2060
112	0	0	2056
113	0	0	2090
114	0	0	2080
115	0	0	2089
116	0	0	2036
117	0	0	2055
118	0	0	2074
119	0	0	2084
120	0	0	2109
121	0	0	2070
122	0	0	2025
123	0	0	2046
124	0	0	2042
125	0	0	2054
126	0	0	2058
127	0	0	2070
0	0	0	2104
1	0	0	2105
2	0	0	2088
3	0	0	2044
4	0	0	2048
5	0	0	2061
6	0	0	2044
7	0	0	2055
8	0	0	2089
9	0	0	2079
10	0	0	2077
11	0	0	2072
12	0	0	2040
13	0	0	2082
14	0	0	2051
15	0	0	2046
16	0	0	2055
17	0	0	2059
18	0	0	2077
19	0	0	2073
20	0	0	2060
21	0	0	2053
22	0	0	2020
23	0	0	2039
24	0	0	2062
25	0	0	2067
26	0	0	2080
27	0	0	2088
28	0	0	2144
29	0	0	2146
30	0	0	2077
31	0	0	2024
32	0	0	2037
33	0	0	2048
34	0	0	2042
35	0	0	2049
36	0	0	2053
37	0	0	2055
38	0	0	2058
39	0	0	2085
40	0	0	2041
41	0	0	2042
42	0	0	2043
43	0	0	2076
44	0	0	2104
45	0	0	2076
46	0	0	2067
47	0	0	2078
48	0	0	2119
49	0	0	2094
50	0	0	2035
51	0	0	2059
52	0	0	2048
53	0	0	2023
54	0	0	2087
55	0	0	2143
56	0	0	2080
57	0	0	2038
58	0	0	2063
59	0	0	2043
60	0	0	2027
61	0	0	2001
62	0	0	2071
63	0	0	2038
64	0	0	2093
65	0	0	2141
66	0	0	2155
67	0	0	2108
68	0	0	2011
69	0	0	1997
70	0	0	2035
71	0	0	2017
72	0	0	2045
73	0	0	2037
74	0	0	2077
75	0	0	2072
76	0	0	2038
77	0	0	2097
78	0	0	2223
79	0	0	2188
80	0	0	2077
81	0	0	2026
82	0	0	2021
83	0	0	2019
84	0	0	2013
85	0	0	2009
86	0	0	2019
87	0	0	2035
88	0	0	2061
89	0	0	2071
90	0	0	2087
91	0	0	2081
92	0	0	2086
93	0	0	2031
94	0	0	2053
95	0	0	2161
96	0	0	2118
97	0	0	2059
98	0	0	2022
99	0	0	2023
100	0	0	2009
101	0	0	2022
102	0	0	2038
103	0	0	2048
104	0	0	2087
105	0	0	2168
106	0	0	2181
107	0	0	2080
108	0	0	2032
109	0	0	1963
110	0	0	1973
111	0	0	1993
112	0	0	2025
113	0	0	2113
114	0	0	2232
115	0	0	2166
116	0	0	2088
117	0	0	2059
118	0	0	2026
119	0	0	2041
120	0	0	2073
121	0	0	2045
122	0	0	2032
123	0	0	2055
124	0	0	2048
125	0	0	2027
126	0	0	2052
127	0	0	2006
0	0	0	1994
1	0	0	2063
2	0	0	2100
3	0	0	2026
4	0	0	2065
5	0	0	2187
6	0	0	2158
7	0	0	2139
8	0	0	2103
9	0	0	2099
10	0	0	2055
11	0	0	2006
12	0	0	2036
13	0	0	2057
14	0	0	2051
15	0	0	2049
16	0	0	2056
17	0	0	2043
18	0	0	2067
19	0	0	2102
20	0	0	2087
21	0	0	2061
22	0	0	2055
23	0	0	2057
24	0	0	2038
25	0	0	2051
26	0	0	2025
27	0	0	2049
28	0	0	2054
29	0	0	2096
30	0	0	2097
31	0	0	2041
32	0	0	2038
33	0	0	2054
34	0	0	2067
35	0	0	2040
36	0	0	2073
37	0	0	2129
38	0	0	2167
39	0	0	2084
40	0	0	2069
41	0	0	2075
42	0	0	2061
43	0	0	2043
44	0	0	2023
45	0	0	2003
46	0	0	2011
47	0	0	2027
48	0	0	2042
49	0	0	2094
50	0	0	2120
51	0	0	2092
52	0	0	2102
53	0	0	2091
54	0	0	2067
55	0	0	2112
56	0	0	2078
57	0	0	2014
58	0	0	2067
59	0	0	2075
60	0	0	1964
61	0	0	2021
62	0	0	2083
63	0	0	2061
64	0	0	2087
65	0	0	2109
66	0	0	2088
67	0	0	2038
68	0	0	2055
69	0	0	2095
70	0	0	2151
71	0	0	2128
72	0	0	2033
73	0	0	2054
74	0	0	2003
75	0	0	2000
76	0	0	2010
77	0	0	2035
78	0	0	2111
79	0	0	2101
80	0	0	2097
81	0	0	2039
82	0	0	2062
83	0	0	2007
84	0	0	2094
85	0	0	2189
86	0	0	2145
87	0	0	2086
88	0	0	2079
89	0	0	2034
90	0	0	2066
91	0	0	2098
92	0	0	2026
93	0	0	1914
94	0	0	1961
95	0	0	2028
96	0	0	2065
97	0	0	2170
98	0	0	2173
99	0	0	2064
100	0	0	2009
101	0	0	1924
102	0	0	1979
103	0	0	2099
104	0	0	2177
105	0	0	2233
106	0	0	2204
107	0	0	2102
108	0	0	1968
109	0	0	1961
110	0	0	1992
111	0	0	2051
112	0	0	2073
113	0	0	2061
114	0	0	2056
115	0	0	2050
116	0	0	2045
117	0	0	2056
118	0	0	2122
119	0	0	2098
120	0	0	2096
121	0	0	2084
122	0	0	2060
123	0	0	2103
124	0	0	2026
125	0	0	2021
126	0	0	1992
127	0	0	2056
0	0	0	2103
1	0	0	2154
2	0	0	2102
3	0	0	2046
4	0	0	2097
5	0	0	2071
6	0	0	2076
7	0	0	2025
8	0	0	2016
9	0	0	2022
10	0	0	2027
11	0	0	2064
12	0	0	2156
13	0	0	2140
14	0	0	2058
15	0	0	2018
16	0	0	2050
17	0	0	2040
18	0	0	2060
19	0	0	2052
20	0	0	2066
21	0	0	2061
22	0	0	2072
23	0	0	2082
24	0	0	2099
25	0	0	2093
26	0	0	2072
27	0	0	2033
28	0	0	2016
29	0	0	1994
30	0	0	2002
31	0	0	2048
32	0	0	2082
33	0	0	2214
34	0	0	2200
35	0	0	2015
36	0	0	2003
37	0	0	2101
38	0	0	2132
39	0	0	2083
40	0	0	1990
41	0	0	1982
42	0	0	2030
43	0	0	2088
44	0	0	2069
45	0	0	2031
46	0	0	2049
47	0	0	2062
48	0	0	2066
49	0	0	2088
50	0	0	2071
51	0	0	2071
52	0	0	2070
53	0	0	2039
54	0	0	2050
55	0	0	2081
56	0	0	2096
57	0	0	2116
58	0	0	2105
59	0	0	2046
60	0	0	2044
61	0	0	2054
62	0	0	2017
63	0	0	2024
64	0	0	2066
65	0	0	2117
66	0	0	2108
67	0	0	2085
68	0	0	2054
69	0	0	2043
70	0	0	2064
71	0	0	2094
72	0	0	2054
73	0	0	2034
74	0	0	2048
75	0	0	2064
76	0	0	2062
77	0	0	2088
78	0	0	2071
79	0	0	2063
80	0	0	2053
81	0	0	2050
82	0	0	2065
83	0	0	2068
84	0	0	2063
85	0	0	2063
86	0	0	2075
87	0	0	2065
88	0	0	2070
89	0	0	2069
90	0	0	2067
91	0	0	2065
92	0	0	2084
93	0	0	2095
94	0	0	2083
95	0	0	2064
96	0	0	2061
97	0	0	2057
98	0	0	2064
99	0	0	2051
100	0	0	2055
101	0	0	2059
102	0	0	2056
103	0	0	2063
104	0	0	2067
105	0	0	2074
106	0	0	2055
107	0	0	2050
108	0	0	2066
109	0	0	2060
110	0	0	2057
111	0	0	2062
112	0	0	2054
113	0	0	2040
114	0	0	2060
115	0	0	2059
116	0	0	2066
117	0	0	2068
118	0	0	2075
119	0	0	2080
120	0	0	2076
121	0	0	2071
122	0	0	2051
123	0	0	2048
124	0	0	2051
125	0	0	2053
126	0	0	2067
127	0	0	2067
0	0	0	2091
1	0	0	2088
2	0	0	2066
3	0	0	2040
4	0	0	2037
5	0	0	2050
6	0	0	2049
7	0	0	2063
8	0	0	2077
9	0	0	2069
10	0	0	2063
11	0	0	2084
12	0	0	2074
13	0	0	2061
14	0	0	2062
15	0	0	2058
16	0	0	2057
17	0	0	2062
18	0	0	2082
19	0	0	2048
20	0	0	2062
21	0	0	2063
22	0	0	2060
23	0	0	2066
24	0	0	2072
25	0	0	2064
26	0	0	2065
27	0	0	2065
28	0	0	2079
29	0	0	2065
30	0	0	2052
31	0	0	2061
32	0	0	2071
33	0	0	2065
34	0	0	2067
35	0	0	2082
36	0	0	2081
37	0	0	2055
38	0	0	2030
39	0	0	2057
40	0	0	2076
41	0	0	2085
42	0	0	2079
43	0	0	2078
44	0	0	2093
45	0	0	2096
46	0	0	2075
47	0	0	2053
48	0	0	2035
49	0	0	2033
50	0	0	2051
51	0	0	2065
52	0	0	2062
53	0	0	2067
54	0	0	2063
55	0	0	2058
56	0	0	2086
57	0	0	2086
58	0	0	2066
59	0	0	2068
60	0	0	2069
61	0	0	2068
62	0	0	2081
63	0	0	2079
64	0	0	2055
65	0	0	2048
66	0	0	2076
67	0	0	2076
68	0	0	2069
69	0	0	2065
70	0	0	2071
71	0	0	2076
72	0	0	2080
73	0	0	2063
74	0	0	2050
75	0	0	2063
76	0	0	2065
77	0	0	2086
78	0	0	2078
79	0	0	2069
80	0	0	2062
81	0	0	2064
82	0	0	2077
83	0	0	2078
84	0	0	2076
85	0	0	2062
86	0	0	2061
87	0	0	2059
88	0	0	2056
89	0	0	2061
90	0	0	2058
91	0	0	2070
92	0	0	2075
93	0	0	2079
94	0	0	2097
95	0	0	2091
96	0	0	2068
97	0	0	2056
98	0	0	2057
99	0	0	2055
100	0	0	2063
101	0	0	2074
102	0	0	2071
103	0	0	2066
104	0	0	2057
105	0	0	2063
106	0	0	2067
107	0	0	2068
108	0	0	2073
109	0	0	2075
110	0	0	2064
111	0	0	2052
112	0	0	2063
113	0	0	2061
114	0	0	2077
115	0	0	2078
116	0	0	2065
117	0	0	2060
118	0	0	2068
119	0	0	2065
120	0	0	2055
121	0	0	2055
122	0	0	2062
123	0	0	2070
124	0	0	2094
125	0	0	2072
126	0	0	2036
127	0	0	2052
0	0	0	2054
1	0	0	2046
2	0	0	2066
3	0	0	2081
4	0	0	2082
5	0	0	2073
6	0	0	2067
7	0	0	2079
8	0	0	2083
9	0	0	2071
10	0	0	2066
11	0	0	2052
12	0	0	2043
13	0	0	2046
14	0	0	2062
15	0	0	2066
16	0	0	2054
17	0	0	2058
18	0	0	2067
19	0	0	2068
20	0	0	2092
21	0	0	2093
22	0	0	2053
23	0	0	2037
24	0	0	2043
25	0	0	2056
26	0	0	2058
27	0	0	2070
28	0	0	2070
29	0	0	2076
30	0	0	2104
31	0	0	2081
32	0	0	2057
33	0	0	2051
34	0	0	2048
35	0	0	2053
36	0	0	2048
37	0	0	2044
38	0	0	2051
39	0	0	2064
40	0	0	2067
41	0	0	2079
42	0	0	2098
43	0	0	2111
44	0	0	2091
45	0	0	2087
46	0	0	2032
47	0	0	2045
48	0	0	2034
49	0	0	2060
50	0	0	2051
51	0	0	2063
52	0	0	2057
53	0	0	2064
54	0	0	2066
55	0	0	2061
56	0	0	2065
57	0	0	2068
58	0	0	2076
59	0	0	2088
60	0	0	2058
61	0	0	2056
62	0	0	2051
63	0	0	2057
64	0	0	2066
65	0	0	2080
66	0	0	2075
67	0	0	2064
68	0	0	2063
69	0	0	2071
70	0	0	2078
71	0	0	2075
72	0	0	2062
73	0	0	2050
74	0	0	2049
75	0	0	2058
76	0	0	2068
77	0	0	2077
78	0	0	2085
79	0	0	2084
80	0	0	2075
81	0	0	2057
82	0	0	2055
83	0	0	2059
84	0	0	2062
85	0	0	2059
86	0	0	2069
87	0	0	2077
88	0	0	2067
89	0	0	2061
90	0	0	2066
91	0	0	2076
92	0	0	2076
93	0	0	2070
94	0	0	2067
95	0	0	2054
96	0	0	2057
97	0	0	2067
98	0	0	2074
99	0	0	2042
100	0	0	2055
101	0	0	2073
102	0	0	2066
103	0	0	2079
104	0	0	2094
105	0	0	2059
106	0	0	2070
107	0	0	2073
108	0	0	2075
109	0	0	2056
110	0	0	2053
111	0	0	2046
112	0	0	2063
113	0	0	2063
114	0	0	2067
115	0	0	2065
116	0	0	2059
117	0	0	2085
118	0	0	2088
119	0	0	2073
120	0	0	2051
121	0	0	2044
122	0	0	2053
123	0	0	2056
124	0	0	2062
125	0	0	2081
126	0	0	2090
127	0	0	2090
0	0	0	2090
1	0	0	2092
2	0	0	2065
3	0	0	2049
4	0	0	2042
5	0	0	2045
6	0	0	2054
7	0	0	2057
8	0	0	2058
9	0	0	2075
10	0	0	2048
11	0	0	2076
12	0	0	2067
13	0	0	2080
14	0	0	2059
15	0	0	2058
16	0	0	2055
17	0	0	2068
18	0	0	2075
19	0	0	2071
20	0	0	2082
21	0	0	2033
22	0	0	2043
23	0	0	2064
24	0	0	2088
25	0	0	2081
26	0	0	2081
27	0	0	2087
28	0	0	2088
29	0	0	2080
30	0	0	2065
31	0	0	2046
32	0	0	2055
33	0	0	2066
34	0	0	2055
35	0	0	2053
36	0	0	2053
37	0	0	2052
38	0	0	2057
39	0	0	2067
40	0	0	2076
41	0	0	2076
42	0	0	2076
43	0	0	2082
44	0	0	2061
45	0	0	2060
46	0	0	2072
47	0	0	2075
48	0	0	2072
49	0	0	2065
50	0	0	2065
51	0	0	2086
52	0	0	2072
53	0	0	2053
54	0	0	2033
55	0	0	2045
56	0	0	2062
57	0	0	2049
58	0	0	2041
59	0	0	2064
60	0	0	2085
61	0	0	2101
62	0	0	2107
63	0	0	2084
64	0	0	2060
65	0	0	2079
66	0	0	2054
67	0	0	2048
68	0	0	2050
69	0	0	2052
70	0	0	2030
71	0	0	2054
72	0	0	2066
73	0	0	2052
74	0	0	2050
75	0	0	2088
76	0	0	2094
77	0	0	2117
78	0	0	2106
79	0	0	2077
80	0	0	2045
81	0	0	2025
82	0	0	2040
83	0	0	2046
84	0	0	2060
85	0	0	2066
86	0	0	2077
87	0	0	2077
88	0	0	2071
89	0	0	2069
90	0	0	2089
91	0	0	2070
92	0	0	2058
93	0	0	2059
94	0	0	2059
95	0	0	2058
96	0	0	2068
97	0	0	2064
98	0	0	2057
99	0	0	2056
100	0	0	2066
101	0	0	2069
102	0	0	2078
103	0	0	2067
104	0	0	2063
105	0	0	2056
106	0	0	2051
107	0	0	2060
108	0	0	2069
109	0	0	2068
110	0	0	2074
111	0	0	2070
112	0	0	2085
113	0	0	2073
114	0	0	2065
115	0	0	2062
116	0	0	2054
117	0	0	2060
118	0	0	2077
119	0	0	2068
120	0	0	2077
121	0	0	2070
122	0	0	2058
123	0	0	2059
124	0	0	2058
125	0	0	2053
126	0	0	2055
127	0	0	2058
0	0	0	2068
1	0	0	2069
2	0	0	2078
3	0	0	2088
4	0	0	2096
5	0	0	2051
6	0	0	2043
7	0	0	2056
8	0	0	2068
9	0	0	2074
10	0	0	2070
11	0	0	2067
12	0	0	2039
13	0	0	2041
14	0	0	2058
15	0	0	2074
16	0	0	2087
17	0	0	2076
18	0	0	2071
19	0	0	2090
20	0	0	2093
21	0	0	2064
22	0	0	2055
23	0	0	2048
24	0	0	2055
25	0	0	2055
26	0	0	2046
27	0	0	2070
28	0	0	2062
29	0	0	2058
30	0	0	2035
31	0	0	2044
32	0	0	2053
33	0	0	2069
34	0	0	2073
35	0	0	2077
36	0	0	2070
37	0	0	2063
38	0	0	2057
39	0	0	2060
40	0	0	2052
41	0	0	2056
42	0	0	2085
43	0	0	2074
44	0	0	2070
45	0	0	2063
46	0	0	2085
47	0	0	2082
48	0	0	2055
49	0	0	2055
50	0	0	2064
51	0	0	2065
52	0	0	2063
53	0	0	2072
54	0	0	2073
55	0	0	2070
56	0	0	2079
57	0	0	2080
58	0	0	2084
59	0	0	2070
60	0	0	2064
61	0	0	2043
62	0	0	2048
63	0	0	2065
64	0	0	2065
65	0	0	2058
66	0	0	2053
67	0	0	2074
68	0	0	2094
69	0	0	2067
70	0	0	2070
71	0	0	2073
72	0	0	2073
73	0	0	2066
74	0	0	2055
75	0	0	2055
76	0	0	2068
77	0	0	2077
78	0	0	2066
79	0	0	2058
80	0	0	2058
81	0	0	2054
82	0	0	2051
83	0	0	2042
84	0	0	2059
85	0	0	2081
86	0	0	2090
87	0	0	2100
88	0	0	2087
89	0	0	2093
90	0	0	2095
91	0	0	2067
92	0	0	2048
93	0	0	2038
94	0	0	2039
95	0	0	2055
96	0	0	2061
97	0	0	2057
98	0	0	2071
99	0	0	2066
100	0	0	2068
101	0	0	2068
102	0	0	2073
103	0	0	2072
104	0	0	2068
105	0	0	2060
106	0	0	2064
107	0	0	2068
108	0	0	2062
109	0	0	2069
110	0	0	2072
111	0	0	2094
112	0	0	2077
113	0	0	2054
114	0	0	2036
115	0	0	2060
116	0	0	2080
117	0	0	2054
118	0	0	2070
119	0	0	2046
120	0	0	2062
121	0	0	2077
122	0	0	2079
123	0	0	2042
124	0	0	2060
125	0	0	2053
126	0	0	2058
127	0	0	2066
0	0	0	2087
1	0	0	2095
2	0	0	2066
3	0	0	2051
4	0	0	2072
5	0	0	2052
6	0	0	2060
7	0	0	2065
8	0	0	2066
9	0	0	2071
10	0	0	2077
11	0	0	2075
12	0	0	2070
13	0	0	2066
14	0	0	2055
15	0	0	2064
16	0	0	2062
17	0	0	2051
18	0	0	2056
19	0	0	2059
20	0	0	2060
21	0	0	2075
22	0	0	2057
23	0	0	2053
24	0	0	2055
25	0	0	2072
26	0	0	2085
27	0	0	2068
28	0	0	2056
29	0	0	2067
30	0	0	2083
31	0	0	2077
32	0	0	2070
33	0	0	2087
34	0	0	2059
35	0	0	2013
36	0	0	2002
37	0	0	2036
38	0	0	2087
39	0	0	2108
40	0	0	2137
41	0	0	2148
42	0	0	2110
43	0	0	2045
44	0	0	2019
45	0	0	2016
46	0	0	2029
47	0	0	2029
48	0	0	2038
49	0	0	2055
50	0	0	2080
51	0	0	2094
52	0	0	2077
53	0	0	2086
54	0	0	2092
55	0	0	2068
56	0	0	2039
57	0	0	2041
58	0	0	2050
59	0	0	2050
60	0	0	2042
61	0	0	2058
62	0	0	2061
63	0	0	2065
64	0	0	2075
65	0	0	2069
66	0	0	2058
67	0	0	2057
68	0	0	2075
69	0	0	2138
70	0	0	2117
71	0	0	2123
72	0	0	2093
73	0	0	2078
74	0	0	2040
75	0	0	2029
76	0	0	2030
77	0	0	2030
78	0	0	2045
79	0	0	2032
80	0	0	2066
81	0	0	2066
82	0	0	2065
83	0	0	2070
84	0	0	2083
85	0	0	2077
86	0	0	2065
87	0	0	2058
88	0	0	2066
89	0	0	2059
90	0	0	2053
91	0	0	2035
92	0	0	2028
93	0	0	2049
94	0	0	2085
95	0	0	2097
96	0	0	2088
97	0	0	2122
98	0	0	2125
99	0	0	2092
100	0	0	2042
101	0	0	2073
102	0	0	2077
103	0	0	2058
104	0	0	2057
105	0	0	2027
106	0	0	2044
107	0	0	2062
108	0	0	2057
109	0	0	2062
110	0	0	2057
111	0	0	2042
112	0	0	2041
113	0	0	2057
114	0	0	2084
115	0	0	2073
116	0	0	2063
117	0	0	2006
118	0	0	2051
119	0	0	2079
120	0	0	2082
121	0	0	2082
122	0	0	2105
123	0	0	2130
124	0	0	2132
125	0	0	2096
126	0	0	2037
127	0	0	2025
0	0	0	2042
1	0	0	2032
2	0	0	2052
3	0	0	2051
4	0	0	2104
5	0	0	2096
6	0	0	2056
7	0	0	2059
8	0	0	2086
9	0	0	2055
10	0	0	2014
11	0	0	2032
12	0	0	2079
13	0	0	2080
14	0	0	2064
15	0	0	2050
16	0	0	2058
17	0	0	2062
18	0	0	2039
19	0	0	2062
20	0	0	2091
21	0	0	2128
22	0	0	2082
23	0	0	2083
24	0	0	2051
25	0	0	2044
26	0	0	2043
27	0	0	2065
28	0	0	2060
29	0	0	2046
30	0	0	2065
31	0	0	2094
32	0	0	2079
33	0	0	2065
34	0	0	2055
35	0	0	2081
36	0	0	2086
37	0	0	2075
38	0	0	2049
39	0	0	2039
40	0	0	2033
41	0	0	2019
42	0	0	2070
43	0	0	2104
44	0	0	2110
45	0	0	2024
46	0	0	1998
47	0	0	2027
48	0	0	2133
49	0	0	2100
50	0	0	2095
51	0	0	2066
52	0	0	2115
53	0	0	2051
54	0	0	2067
55	0	0	2124
56	0	0	2182
57	0	0	2164
58	0	0	2104
59	0	0	1982
60	0	0	1986
61	0	0	1999
62	0	0	2003
63	0	0	2018
64	0	0	2048
65	0	0	2037
66	0	0	2010
67	0	0	2053
68	0	0	2082
69	0	0	2101
70	0	0	2117
71	0	0	2123
72	0	0	2097
73	0	0	2082
74	0	0	2000
75	0	0	2015
76	0	0	2071
77	0	0	2041
78	0	0	2088
79	0	0	2188
80	0	0	2156
81	0	0	2042
82	0	0	1988
83	0	0	2034
84	0	0	2064
85	0	0	2041
86	0	0	2027
87	0	0	2048
88	0	0	2094
89	0	0	2072
90	0	0	2043
91	0	0	2020
92	0	0	1997
93	0	0	2030
94	0	0	2090
95	0	0	2143
96	0	0	2163
97	0	0	2088
98	0	0	2097
99	0	0	2083
100	0	0	2004
101	0	0	2014
102	0	0	2021
103	0	0	2019
104	0	0	2061
105	0	0	2170
106	0	0	2079
107	0	0	2079
108	0	0	2099
109	0	0	2062
110	0	0	2075
111	0	0	2039
112	0	0	2028
113	0	0	2048
114	0	0	2036
115	0	0	2033
116	0	0	2035
117	0	0	2063
118	0	0	2054
119	0	0	2081
120	0	0	2106
121	0	0	2004
122	0	0	1994
123	0	0	2098
124	0	0	2191
125	0	0	2182
126	0	0	2161
127	0	0	2151
0	0	0	2070
1	0	0	1991
2	0	0	1984
3	0	0	2022
4	0	0	2038
5	0	0	2006
6	0	0	2047
7	0	0	2052
8	0	0	2071
9	0	0	2056
10	0	0	2053
11	0	0	2071
12	0	0	2075
13	0	0	2077
14	0	0	2081
15	0	0	2081
16	0	0	2098
17	0	0	2077
18	0	0	2048
19	0	0	2028
20	0	0	2034
21	0	0	2044
22	0	0	2068
23	0	0	2086
24	0	0	2126
25	0	0	2144
26	0	0	2051
27	0	0	2012
28	0	0	2009
29	0	0	2063
30	0	0	2073
31	0	0	2061
32	0	0	2105
33	0	0	2175
34	0	0	2106
35	0	0	2018
36	0	0	2004
37	0	0	2041
38	0	0	2057
39	0	0	2056
40	0	0	2039
41	0	0	2073
42	0	0	2140
43	0	0	2092
44	0	0	1980
45	0	0	1975
46	0	0	2004
47	0	0	2061
48	0	0	2135
49	0	0	2209
50	0	0	2153
51	0	0	2014
52	0	0	1992
53	0	0	2061
54	0	0	2187
55	0	0	2114
56	0	0	2028
57	0	0	1979
58	0	0	1998
59	0	0	2024
60	0	0	2032
61	0	0	2061
62	0	0	2096
63	0	0	2093
64	0	0	2080
65	0	0	2049
66	0	0	2078
67	0	0	2119
68	0	0	2074
69	0	0	2029
70	0	0	2057
71	0	0	2064
72	0	0	2061
73	0	0	2052
74	0	0	2068
75	0	0	2147
76	0	0	2051
77	0	0	2020
78	0	0	2063
79	0	0	2072
80	0	0	2084
81	0	0	2072
82	0	0	2091
83	0	0	2105
84	0	0	2064
85	0	0	2009
86	0	0	2034
87	0	0	2038
88	0	0	2012
89	0	0	1995
90	0	0	2059
91	0	0	2087
92	0	0	2046
93	0	0	2069
94	0	0	2233
95	0	0	2224
96	0	0	2134
97	0	0	2050
98	0	0	2028
99	0	0	2007
100	0	0	1943
101	0	0	1936
102	0	0	2073
103	0	0	2117
104	0	0	2059
105	0	0	2164
106	0	0	2238
107	0	0	2139
108	0	0	1988
109	0	0	1982
110	0	0	2025
111	0	0	1969
112	0	0	2009
113	0	0	2088
114	0	0	2074
115	0	0	2019
116	0	0	2140
117	0	0	2195
118	0	0	2101
119	0	0	2009
120	0	0	1963
121	0	0	1994
122	0	0	2005
123	0	0	2022
124	0	0	2081
125	0	0	2114
126	0	0	2214
127	0	0	2126
0	0	0	2122
1	0	0	2091
2	0	0	2072
3	0	0	2078
4	0	0	2078
5	0	0	2005
6	0	0	2021
7	0	0	2048
8	0	0	2033
9	0	0	2022
10	0	0	1993
11	0	0	1987
12	0	0	1970
13	0	0	2018
14	0	0	2210
15	0	0	2251
16	0	0	2181
17	0	0	2181
18	0	0	2080
19	0	0	2001
20	0	0	1975
21	0	0	2016
22	0	0	2030
23	0	0	2070
24	0	0	2057
25	0	0	1984
26	0	0	1949
27	0	0	1985
28	0	0	2050
29	0	0	2142
30	0	0	2321
31	0	0	2254
32	0	0	2033
33	0	0	1960
34	0	0	1964
35	0	0	1953
36	0	0	1980
37	0	0	2065
38	0	0	2099
39	0	0	2175
40	0	0	2214
41	0	0	2185
42	0	0	2108
43	0	0	1957
44	0	0	1944
45	0	0	1938
46	0	0	1983
47	0	0	2072
48	0	0	2111
49	0	0	2217
50	0	0	2217
51	0	0	2067
52	0	0	1969
53	0	0	2008
54	0	0	2038
55	0	0	2018
56	0	0	2062
57	0	0	2087
58	0	0	1986
59	0	0	1995
60	0	0	2055
61	0	0	2022
62	0	0	2128
63	0	0	2242
64	0	0	2237
65	0	0	2032
66	0	0	1954
67	0	0	1994
68	0	0	2113
69	0	0	2124
70	0	0	2054
71	0	0	2066
72	0	0	2051
73	0	0	2033
74	0	0	2012
75	0	0	2038
76	0	0	2053
77	0	0	2000
78	0	0	2014
79	0	0	2062
80	0	0	2100
81	0	0	2163
82	0	0	2127
83	0	0	2123
84	0	0	2071
85	0	0	2035
86	0	0	2042
87	0	0	2043
88	0	0	2027
89	0	0	2070
90	0	0	2064
91	0	0	2061
92	0	0	2084
93	0	0	2086
94	0	0	2060
95	0	0	2052
96	0	0	2050
97	0	0	2026
98	0	0	1984
99	0	0	1936
100	0	0	2029
101	0	0	2085
102	0	0	2165
103	0	0	2207
104	0	0	2333
105	0	0	2205
106	0	0	2046
107	0	0	1969
108	0	0	2011
109	0	0	2028
110	0	0	2067
111	0	0	2117
112	0	0	2031
113	0	0	2020
114	0	0	2037
115	0	0	2048
116	0	0	2060
117	0	0	2045
118	0	0	2054
119	0	0	2028
120	0	0	2012
121	0	0	2062
122	0	0	2091
123	0	0	2086
124	0	0	2126
125	0	0	2079
126	0	0	1993
127	0	0	1976
0	0	0	2014
1	0	0	1964
2	0	0	2035
3	0	0	2239
4	0	0	2264
5	0	0	2131
6	0	0	1958
7	0	0	1976
8	0	0	1975
9	0	0	1954
10	0	0	2051
11	0	0	2214
12	0	0	2330
13	0	0	2245
14	0	0	1992
15	0	0	1973
16	0	0	1974
17	0	0	1998
18	0	0	2016
19	0	0	2027
20	0	0	2054
21	0	0	2060
22	0	0	2067
23	0	0	2059
24	0	0	2077
25	0	0	2099
26	0	0	2063
27	0	0	2056
28	0	0	2046
29	0	0	2063
30	0	0	2058
31	0	0	2037
32	0	0	2013
33	0	0	2008
34	0	0	2087
35	0	0	2192
36	0	0	2203
37	0	0	2094
38	0	0	2055
39	0	0	2022
40	0	0	2027
41	0	0	2033
42	0	0	2046
43	0	0	2056
44	0	0	2067
45	0	0	2059
46	0	0	2057
47	0	0	2063
48	0	0	2064
49	0	0	2060
50	0	0	2080
51	0	0	2054
52	0	0	2075
53	0	0	2055
54	0	0	2068
55	0	0	2085
56	0	0	2068
57	0	0	2066
58	0	0	2065
59	0	0	2043
60	0	0	2059
61	0	0	2059
62	0	0	2078
63	0	0	2067
64	0	0	2067
65	0	0	2083
66	0	0	2073
67	0	0	2058
68	0	0	2059
69	0	0	2046
70	0	0	2043
71	0	0	2065
72	0	0	2069
73	0	0	2063
74	0	0	2070
75	0	0	2065
76	0	0	2066
77	0	0	2068
78	0	0	2088
79	0	0	2063
80	0	0	2050
81	0	0	2062
82	0	0	2072
83	0	0	2060
84	0	0	2067
85	0	0	2048
86	0	0	2056
87	0	0	2056
88	0	0	2081
89	0	0	2055
90	0	0	2103
91	0	0	2111
92	0	0	2077
93	0	0	2046
94	0	0	2055
95	0	0	2049
96	0	0	2039
97	0	0	2060
98	0	0	2056
99	0	0	2050
100	0	0	2042
101	0	0	2074
102	0	0	2080
103	0	0	2070
104	0	0	2056
105	0	0	2056
106	0	0	2045
107	0	0	2061
108	0	0	2074
109	0	0	2058
110	0	0	2079
111	0	0	2091
112	0	0	2086
113	0	0	2074
114	0	0	2069
115	0	0	2077
116	0	0	2073
117	0	0	2054
118	0	0	2053
119	0	0	2048
120	0	0	2036
121	0	0	2040
122	0	0	2052
123	0	0	2060
124	0	0	2071
125	0	0	2066
126	0	0	2072
127	0	0	2069
0	0	0	2074
1	0	0	2083
2	0	0	2081
3	0	0	2065
4	0	0	2064
5	0	0	2062
6	0	0	2057
7	0	0	2058
8	0	0	2060
9	0	0	2056
10	0	0	2058
11	0	0	2064
12	0	0	2070
13	0	0	2058
14	0	0	2058
15	0	0	2066
16	0	0	2066
17	0	0	2048
18	0	0	2056
19	0	0	2063
20	0	0	2078
21	0	0	2079
22	0	0	2086
23	0	0	2095
24	0	0	2077
25	0	0	2077
26	0	0	2065
27	0	0	2054
28	0	0	2049
29	0	0	2051
30	0	0	2067
31	0	0	2069
32	0	0	2059
33	0	0	2062
34	0	0	2077
35	0	0	2061
36	0	0	2069
37	0	0	2051
38	0	0	2057
39	0	0	2060
40	0	0	2068
41	0	0	2070
42	0	0	2063
43	0	0	2070
44	0	0	2076
45	0	0	2074
46	0	0	2063
47	0	0	2062
48	0	0	2080
49	0	0	2060
50	0	0	2062
51	0	0	2072
52	0	0	2072
53	0	0	2065
54	0	0	2052
55	0	0	2056
56	0	0	2051
57	0	0	2072
58	0	0	2095
59	0	0	2101
60	0	0	2087
61	0	0	2081
62	0	0	2068
63	0	0	2069
64	0	0	2035
65	0	0	2014
66	0	0	2029
67	0	0	2065
68	0	0	2085
69	0	0	2080
70	0	0	2095
71	0	0	2104
72	0	0	2112
73	0	0	2081
74	0	0	2053
75	0	0	2056
76	0	0	2040
77	0	0	2045
78	0	0	2049
79	0	0	2060
80	0	0	2061
81	0	0	2076
82	0	0	2086
83	0	0	2073
84	0	0	2060
85	0	0	2055
86	0	0	2063
87	0	0	2076
88	0	0	2088
89	0	0	2080
90	0	0	2061
91	0	0	2041
92	0	0	2073
93	0	0	2083
94	0	0	2063
95	0	0	2069
96	0	0	2071
97	0	0	2042
98	0	0	2042
99	0	0	2062
100	0	0	2083
101	0	0	2077
102	0	0	2061
103	0	0	2073
104	0	0	2062
105	0	0	2062
106	0	0	2070
107	0	0	2066
108	0	0	2073
109	0	0	2077
110	0	0	2073
111	0	0	2072
112	0	0	2062
113	0	0	2061
114	0	0	2079
115	0	0	2081
116	0	0	2070
117	0	0	2055
118	0	0	2063
119	0	0	2053
120	0	0	2067
121	0	0	2077
122	0	0	2070
123	0	0	2066
124	0	0	2065
125	0	0	2052
126	0	0	2048
127	0	0	2052
0	0	0	2056
1	0	0	2067
2	0	0	2082
3	0	0	2096
4	0	0	2078
5	0	0	2068
6	0	0	2070
7	0	0	2087
8	0	0	2080
9	0	0	2063
10	0	0	2056
11	0	0	2066
12	0	0	2067
13	0	0	2061
14	0	0	2055
15	0	0	2056
16	0	0	2057
17	0	0	2051
18	0	0	2058
19	0	0	2065
20	0	0	2069
21	0	0	2081
22	0	0	2070
23	0	0	2042
24	0	0	2067
25	0	0	2080
26	0	0	2096
27	0	0	2074
28	0	0	2077
29	0	0	2079
30	0	0	2058
31	0	0	2046
32	0	0	2046
33	0	0	2057
34	0	0	2064
35	0	0	2057
36	0	0	2054
37	0	0	2066
38	0	0	2055
39	0	0	2067
40	0	0	2072
41	0	0	2073
42	0	0	2090
43	0	0	2078
44	0	0	2041
45	0	0	2022
46	0	0	2041
47	0	0	2042
48	0	0	2050
49	0	0	2053
50	0	0	2052
51	0	0	2059
52	0	0	2086
53	0	0	2087
54	0	0	2073
55	0	0	2061
56	0	0	2053
57	0	0	2072
58	0	0	2080
59	0	0	2066
60	0	0	2086
61	0	0	2067
62	0	0	2070
63	0	0	2078
64	0	0	2086
65	0	0	2063
66	0	0	2059
67	0	0	2071
68	0	0	2058
69	0	0	2062
70	0	0	2055
71	0	0	2057
72	0	0	2072
73	0	0	2088
74	0	0	2074
75	0	0	2069
76	0	0	2064
77	0	0	2078
78	0	0	2070
79	0	0	2054
80	0	0	2055
81	0	0	2074
82	0	0	2070
83	0	0	2059
84	0	0	2066
85	0	0	2069
86	0	0	2083
87	0	0	2085
88	0	0	2084
89	0	0	2067
90	0	0	2067
91	0	0	2091
92	0	0	2072
93	0	0	2066
94	0	0	2060
95	0	0	2054
96	0	0	2050
97	0	0	2049
98	0	0	2051
99	0	0	2080
100	0	0	2070
101	0	0	2063
102	0	0	2093
103	0	0	2081
104	0	0	2066
105	0	0	2056
106	0	0	2058
107	0	0	2057
108	0	0	2067
109	0	0	2072
110	0	0	2062
111	0	0	2061
112	0	0	2056
113	0	0	2064
114	0	0	2067
115	0	0	2076
116	0	0	2068
117	0	0	2062
118	0	0	2066
119	0	0	2067
120	0	0	2068
121	0	0	2063
122	0	0	2068
123	0	0	2077
124	0	0	2061
125	0	0	2056
126	0	0	2050
127	0	0	2058
0	0	0	2070
1	0	0	2079
2	0	0	2083
3	0	0	2081
4	0	0	2061
5	0	0	2046
6	0	0	2055
7	0	0	2063
8	0	0	2055
9	0	0	2059
10	0	0	2068
11	0	0	2062
12	0	0	2067
13	0	0	2068
14	0	0	2075
15	0	0	2068
16	0	0	2055
17	0	0	2057
18	0	0	2062
19	0	0	2060
20	0	0	2064
21	0	0	2073
22	0	0	2075
23	0	0	2071
24	0	0	2057
25	0	0	2055
26	0	0	2042
27	0	0	2054
28	0	0	2065
29	0	0	2067
30	0	0	2077
31	0	0	2046
32	0	0	2073
33	0	0	2074
34	0	0	2083
35	0	0	2062
36	0	0	2062
37	0	0	2049
38	0	0	2076
39	0	0	2076
40	0	0	2086
41	0	0	2077
42	0	0	2060
43	0	0	2050
44	0	0	2049
45	0	0	2062
46	0	0	2060
47	0	0	2063
48	0	0	2065
49	0	0	2063
50	0	0	2058
51	0	0	2045
52	0	0	2059
53	0	0	2067
54	0	0	2073
55	0	0	2057
56	0	0	2059
57	0	0	2071
58	0	0	2080
59	0	0	2067
60	0	0	2070
61	0	0	2071
62	0	0	2082
63	0	0	2095
64	0	0	2083
65	0	0	2059
66	0	0	2039
67	0	0	2044
68	0	0	2055
69	0	0	2070
70	0	0	2084
71	0	0	2070
72	0	0	2062
73	0	0	2042
74	0	0	2054
75	0	0	2046
76	0	0	2067
77	0	0	2088
78	0	0	2091
79	0	0	2070
80	0	0	2064
81	0	0	2076
82	0	0	2066
83	0	0	2060
84	0	0	2051
85	0	0	2051
86	0	0	2065
87	0	0	2059
88	0	0	2073
89	0	0	2073
90	0	0	2067
91	0	0	2083
92	0	0	2088
93	0	0	2073
94	0	0	2051
95	0	0	2054
96	0	0	2057
97	0	0	2064
98	0	0	2067
99	0	0	2067
100	0	0	2065
101	0	0	2055
102	0	0	2066
103	0	0	2062
104	0	0	2073
105	0	0	2070
106	0	0	2070
107	0	0	2061
108	0	0	2053
109	0	0	2055
110	0	0	2058
111	0	0	2063
112	0	0	2070
113	0	0	2070
114	0	0	2085
115	0	0	2081
116	0	0	2085
117	0	0	2085
118	0	0	2051
119	0	0	2048
120	0	0	2064
121	0	0	2063
122	0	0	2067
123	0	0	2046
124	0	0	2059
125	0	0	2069
126	0	0	2074
127	0	0	2078
0	0	0	2080
1	0	0	2062
2	0	0	2048
3	0	0	2073
4	0	0	2073
5	0	0	2057
6	0	0	2063
7	0	0	2065
8	0	0	2068
9	0	0	2063
10	0	0	2063
11	0	0	2058
12	0	0	2062
13	0	0	2053
14	0	0	2053
15	0	0	2064
16	0	0	2068
17	0	0	2079
18	0	0	2078
19	0	0	2083
20	0	0	2084
21	0	0	2069
22	0	0	2074
23	0	0	2059
24	0	0	2053
25	0	0	2037
26	0	0	2055
27	0	0	2077
28	0	0	2072
29	0	0	2079
30	0	0	2067
31	0	0	2065
32	0	0	2081
33	0	0	2082
34	0	0	2074
35	0	0	2045
36	0	0	2063
37	0	0	2040
38	0	0	2059
39	0	0	2058
40	0	0	2060
41	0	0	2060
42	0	0	2067
43	0	0	2091
44	0	0	2102
45	0	0	2070
46	0	0	2027
47	0	0	2007
48	0	0	2027
49	0	0	2062
50	0	0	2084
51	0	0	2117
52	0	0	2144
53	0	0	2139
54	0	0	2083
55	0	0	2064
56	0	0	2015
57	0	0	2019
58	0	0	2045
59	0	0	2055
60	0	0	2066
61	0	0	2063
62	0	0	2057
63	0	0	2044
64	0	0	2048
65	0	0	2062
66	0	0	2072
67	0	0	2082
68	0	0	2069
69	0	0	2056
70	0	0	2060
71	0	0	2060
72	0	0	2071
73	0	0	2067
74	0	0	2066
75	0	0	2069
76	0	0	2080
77	0	0	2081
78	0	0	2071
79	0	0	2054
80	0	0	2055
81	0	0	2068
82	0	0	2048
83	0	0	2061
84	0	0	2073
85	0	0	2062
86	0	0	2073
87	0	0	2068
88	0	0	2061
89	0	0	2060
90	0	0	2074
91	0	0	2074
92	0	0	2060
93	0	0	2055
94	0	0	2048
95	0	0	2058
96	0	0	2065
97	0	0	2056
98	0	0	2058
99	0	0	2053
100	0	0	2081
101	0	0	2079
102	0	0	2067
103	0	0	2051
104	0	0	2064
105	0	0	2088
106	0	0	2101
107	0	0	2118
108	0	0	2092
109	0	0	2086
110	0	0	2074
111	0	0	2050
112	0	0	2030
113	0	0	2026
114	0	0	2036
115	0	0	2051
116	0	0	2054
117	0	0	2069
118	0	0	2068
119	0	0	2057
120	0	0	2061
121	0	0	2058
122	0	0	2052
123	0	0	2055
124	0	0	2061
125	0	0	2071
126	0	0	2054
127	0	0	2042
0	0	0	2054
1	0	0	2088
2	0	0	2088
3	0	0	2095
4	0	0	2103
5	0	0	2118
6	0	0	2133
7	0	0	2075
8	0	0	2044
9	0	0	2014
10	0	0	2027
11	0	0	2032
12	0	0	2037
13	0	0	2061
14	0	0	2076
15	0	0	2074
16	0	0	2084
17	0	0	2084
18	0	0	2063
19	0	0	2071
20	0	0	2084
21	0	0	2051
22	0	0	2043
23	0	0	2053
24	0	0	2056
25	0	0	2056
26	0	0	2081
27	0	0	2065
28	0	0	2058
29	0	0	2067
30	0	0	2053
31	0	0	2056
32	0	0	2059
33	0	0	2065
34	0	0	2079
35	0	0	2077
36	0	0	2091
37	0	0	2078
38	0	0	2083
39	0	0	2069
40	0	0	2074
41	0	0	2070
42	0	0	2042
43	0	0	2045
44	0	0	2053
45	0	0	2071
46	0	0	2074
47	0	0	2065
48	0	0	2065
49	0	0	2053
50	0	0	2055
51	0	0	2063
52	0	0	2070
53	0	0	2059
54	0	0	2054
55	0	0	2052
56	0	0	2067
57	0	0	2072
58	0	0	2071
59	0	0	2063
60	0	0	2069
61	0	0	2101
62	0	0	2076
63	0	0	2036
64	0	0	2058
65	0	0	2069
66	0	0	2070
67	0	0	2063
68	0	0	2079
69	0	0	2100
70	0	0	2073
71	0	0	2062
72	0	0	2029
73	0	0	2029
74	0	0	2052
75	0	0	2073
76	0	0	2092
77	0	0	2083
78	0	0	2088
79	0	0	2103
80	0	0	2055
81	0	0	2027
82	0	0	2033
83	0	0	2035
84	0	0	2056
85	0	0	2057
86	0	0	2070
87	0	0	2075
88	0	0	2093
89	0	0	2097
90	0	0	2053
91	0	0	2045
92	0	0	2058
93	0	0	2072
94	0	0	2077
95	0	0	2070
96	0	0	2053
97	0	0	2074
98	0	0	2064
99	0	0	2059
100	0	0	2069
101	0	0	1991
102	0	0	2011
103	0	0	2086
104	0	0	2148
105	0	0	2171
106	0	0	2151
107	0	0	2107
108	0	0	2084
109	0	0	2030
110	0	0	2012
111	0	0	2005
112	0	0	2028
113	0	0	2040
114	0	0	2052
115	0	0	2050
116	0	0	2057
117	0	0	2074
118	0	0	2050
119	0	0	2039
120	0	0	2042
121	0	0	2045
122	0	0	2041
123	0	0	2089
124	0	0	2031
125	0	0	2052
126	0	0	2107
127	0	0	2137
0	0	0	2158
1	0	0	2148
2	0	0	2132
3	0	0	2078
4	0	0	2065
5	0	0	2016
6	0	0	2012
7	0	0	1966
8	0	0	1998
9	0	0	2052
10	0	0	2085
11	0	0	2105
12	0	0	2130
13	0	0	2112
14	0	0	2058
15	0	0	2030
16	0	0	2021
17	0	0	2031
18	0	0	2038
19	0	0	2052
20	0	0	2065
21	0	0	2069
22	0	0	2066
23	0	0	2056
24	0	0	2071
25	0	0	2029
26	0	0	2040
27	0	0	2060
28	0	0	2069
29	0	0	2095
30	0	0	2093
31	0	0	2105
32	0	0	2141
33	0	0	2122
34	0	0	2059
35	0	0	2041
36	0	0	2039
37	0	0	2036
38	0	0	2030
39	0	0	2076
40	0	0	2059
41	0	0	2041
42	0	0	2066
43	0	0	2055
44	0	0	2090
45	0	0	2078
46	0	0	2087
47	0	0	2043
48	0	0	2036
49	0	0	2021
50	0	0	2038
51	0	0	2053
52	0	0	2066
53	0	0	2038
54	0	0	2079
55	0	0	2120
56	0	0	2096
57	0	0	2030
58	0	0	2086
59	0	0	2119
60	0	0	2115
61	0	0	2133
62	0	0	2083
63	0	0	2034
64	0	0	1995
65	0	0	1997
66	0	0	2004
67	0	0	2039
68	0	0	2058
69	0	0	2119
70	0	0	2133
71	0	0	2108
72	0	0	2081
73	0	0	2031
74	0	0	2054
75	0	0	2066
76	0	0	2105
77	0	0	2066
78	0	0	2010
79	0	0	2043
80	0	0	2043
81	0	0	2033
82	0	0	2050
83	0	0	2141
84	0	0	2102
85	0	0	2091
86	0	0	2095
87	0	0	2066
88	0	0	2001
89	0	0	2005
90	0	0	2039
91	0	0	2059
92	0	0	2088
93	0	0	2157
94	0	0	2169
95	0	0	2116
96	0	0	2065
97	0	0	2022
98	0	0	2025
99	0	0	2055
100	0	0	2071
101	0	0	2067
102	0	0	2063
103	0	0	2032
104	0	0	2026
105	0	0	2026
106	0	0	2076
107	0	0	2049
108	0	0	2055
109	0	0	2103
110	0	0	2122
111	0	0	2082
112	0	0	2091
113	0	0	2108
114	0	0	2056
115	0	0	2009
116	0	0	2021
117	0	0	2067
118	0	0	2070
119	0	0	2057
120	0	0	2071
121	0	0	2063
122	0	0	2070
123	0	0	2050
124	0	0	2065
125	0	0	2110
126	0	0	2074
127	0	0	2032
0	0	0	2062
1	0	0	2038
2	0	0	2014
3	0	0	2065
4	0	0	2055
5	0	0	2050
6	0	0	2086
7	0	0	2133
8	0	0	2131
9	0	0	2098
10	0	0	2068
11	0	0	2023
12	0	0	1994
13	0	0	1984
14	0	0	2032
15	0	0	2090
16	0	0	2123
17	0	0	2103
18	0	0	2183
19	0	0	2195
20	0	0	2098
21	0	0	2012
22	0	0	2000
23	0	0	1988
24	0	0	2020
25	0	0	2055
26	0	0	2021
27	0	0	2061
28	0	0	2076
29	0	0	2070
30	0	0	2076
31	0	0	2076
32	0	0	2038
33	0	0	2001
34	0	0	1981
35	0	0	1994
36	0	0	2056
37	0	0	2119
38	0	0	2234
39	0	0	2272
40	0	0	2182
41	0	0	2012
42	0	0	1953
43	0	0	2006
44	0	0	2007
45	0	0	2063
46	0	0	2059
47	0	0	2065
48	0	0	2049
49	0	0	2039
50	0	0	2017
51	0	0	2021
52	0	0	2090
53	0	0	2096
54	0	0	2136
55	0	0	2140
56	0	0	2143
57	0	0	2071
58	0	0	2049
59	0	0	2035
60	0	0	2033
61	0	0	2049
62	0	0	2042
63	0	0	2032
64	0	0	2035
65	0	0	2039
66	0	0	2028
67	0	0	2044
68	0	0	2085
69	0	0	2121
70	0	0	2127
71	0	0	2108
72	0	0	2094
73	0	0	2005
74	0	0	2017
75	0	0	2097
76	0	0	2075
77	0	0	2052
78	0	0	2020
79	0	0	2073
80	0	0	2068
81	0	0	2095
82	0	0	2057
83	0	0	2054
84	0	0	2067
85	0	0	2072
86	0	0	2062
87	0	0	2014
88	0	0	1981
89	0	0	1962
90	0	0	2020
91	0	0	2008
92	0	0	2155
93	0	0	2284
94	0	0	2315
95	0	0	2158
96	0	0	2000
97	0	0	1986
98	0	0	2004
99	0	0	2012
100	0	0	2025
101	0	0	1989
102	0	0	2017
103	0	0	2039
104	0	0	2061
105	0	0	2128
106	0	0	2134
107	0	0	2076
108	0	0	2063
109	0	0	2102
110	0	0	2106
111	0	0	2075
112	0	0	2055
113	0	0	2071
114	0	0	2070
115	0	0	2032
116	0	0	2052
117	0	0	2092
118	0	0	2095
119	0	0	2037
120	0	0	1950
121	0	0	1993
122	0	0	2011
123	0	0	2088
124	0	0	2245
125	0	0	2315
126	0	0	2179
127	0	0	2002
0	0	0	1925
1	0	0	1982
2	0	0	2018
3	0	0	2034
4	0	0	2042
5	0	0	2050
6	0	0	2056
7	0	0	2054
8	0	0	2091
9	0	0	2115
10	0	0	2050
11	0	0	2079
12	0	0	2096
13	0	0	2056
14	0	0	2017
15	0	0	2118
16	0	0	2099
17	0	0	2076
18	0	0	2019
19	0	0	2081
20	0	0	2062
21	0	0	2039
22	0	0	1991
23	0	0	2011
24	0	0	2064
25	0	0	2074
26	0	0	2071
27	0	0	2036
28	0	0	1968
29	0	0	1947
30	0	0	2037
31	0	0	2180
32	0	0	2324
33	0	0	2296
34	0	0	2239
35	0	0	2091
36	0	0	1969
37	0	0	1920
38	0	0	1971
39	0	0	2020
40	0	0	2074
41	0	0	2062
42	0	0	2038
43	0	0	1979
44	0	0	2004
45	0	0	2107
46	0	0	2067
47	0	0	2098
48	0	0	2165
49	0	0	2122
50	0	0	2015
51	0	0	1982
52	0	0	2026
53	0	0	2035
54	0	0	2032
55	0	0	1992
56	0	0	2117
57	0	0	2192
58	0	0	2118
59	0	0	2007
60	0	0	1959
61	0	0	2003
62	0	0	2147
63	0	0	2109
64	0	0	2089
65	0	0	2112
66	0	0	2164
67	0	0	2121
68	0	0	2013
69	0	0	2026
70	0	0	2032
71	0	0	2027
72	0	0	2045
73	0	0	2060
74	0	0	2079
75	0	0	2049
76	0	0	2059
77	0	0	2060
78	0	0	2088
79	0	0	2091
80	0	0	2057
81	0	0	2039
82	0	0	2034
83	0	0	1994
84	0	0	2059
85	0	0	2061
86	0	0	2062
87	0	0	2091
88	0	0	2131
89	0	0	2150
90	0	0	2144
91	0	0	2123
92	0	0	2104
93	0	0	2016
94	0	0	1984
95	0	0	2028
96	0	0	2036
97	0	0	2059
98	0	0	2053
99	0	0	2028
100	0	0	2109
101	0	0	2058
102	0	0	2014
103	0	0	2101
104	0	0	2081
105	0	0	2080
106	0	0	2109
107	0	0	2117
108	0	0	2053
109	0	0	2025
110	0	0	2046
111	0	0	2050
112	0	0	2054
113	0	0	2057
114	0	0	2059
115	0	0	2062
116	0	0	2057
117	0	0	2057
118	0	0	2074
119	0	0	2074
120	0	0	2087
121	0	0	2106
122	0	0	2052
123	0	0	2048
124	0	0	2063
125	0	0	2070
126	0	0	2077
127	0	0	2045
0	0	0	2052
1	0	0	2070
2	0	0	2071
3	0	0	2088
4	0	0	2050
5	0	0	2072
6	0	0	2061
7	0	0	2061
8	0	0	2062
9	0	0	2064
10	0	0	2066
11	0	0	2068
12	0	0	2060
13	0	0	2069
14	0	0	2078
15	0	0	2076
16	0	0	2069
17	0	0	2059
18	0	0	2054
19	0	0	2046
20	0	0	2054
21	0	0	2066
22	0	0	2056
23	0	0	2061
24	0	0	2064
25	0	0	2088
26	0	0	2074
27	0	0	2062
28	0	0	2057
29	0	0	2076
30	0	0	2076
31	0	0	2091
32	0	0	2068
33	0	0	2083
34	0	0	2059
35	0	0	2033
36	0	0	2038
37	0	0	2026
38	0	0	2049
39	0	0	2028
40	0	0	2072
41	0	0	2135
42	0	0	2101
43	0	0	2078
44	0	0	2064
45	0	0	2086
46	0	0	2043
47	0	0	2055
48	0	0	2061
49	0	0	2070
50	0	0	2067
51	0	0	2053
52	0	0	2051
53	0	0	2057
54	0	0	2051
55	0	0	2071
56	0	0	2095
57	0	0	2069
58	0	0	2062
59	0	0	2072
60	0	0	2051
61	0	0	2067
62	0	0	2073
63	0	0	2071
64	0	0	2063
65	0	0	2070
66	0	0	2049
67	0	0	2053
68	0	0	2052
69	0	0	2061
70	0	0	2050
71	0	0	2073
72	0	0	2086
73	0	0	2080
74	0	0	2090
75	0	0	2065
76	0	0	2075
77	0	0	2063
78	0	0	2054
79	0	0	2055
80	0	0	2069
81	0	0	2067
82	0	0	2054
83	0	0	2048
84	0	0	2058
85	0	0	2066
86	0	0	2074
87	0	0	2073
88	0	0	2062
89	0	0	2082
90	0	0	2076
91	0	0	2046
92	0	0	2062
93	0	0	2065
94	0	0	2080
95	0	0	2068
96	0	0	2057
97	0	0	2071
98	0	0	2060
99	0	0	2059
100	0	0	2055
101	0	0	2051
102	0	0	2059
103	0	0	2057
104	0	0	2083
105	0	0	2085
106	0	0	2100
107	0	0	2093
108	0	0	2057
109	0	0	2046
110	0	0	2034
111	0	0	2058
112	0	0	2059
113	0	0	2063
114	0	0	2076
115	0	0	2075
116	0	0	2070
117	0	0	2058
118	0	0	2067
119	0	0	2059
120	0	0	2057
121	0	0	2055
122	0	0	2057
123	0	0	2075
124	0	0	2077
125	0	0	2079
126	0	0	2087
127	0	0	2083
0	0	0	2076
1	0	0	2078
2	0	0	2055
3	0	0	2045
4	0	0	2058
5	0	0	2049
6	0	0	2079
7	0	0	2074
8	0	0	2058
9	0	0	2069
10	0	0	2074
11	0	0	2058
12	0	0	2048
13	0	0	2063
14	0	0	2064
15	0	0	2080
16	0	0	2081
17	0	0	2079
18	0	0	2065
19	0	0	2067
20	0	0	2060
21	0	0	2058
22	0	0	2075
23	0	0	2080
24	0	0	2087
25	0	0	2083
26	0	0	2078
27	0	0	2062
28	0	0	2056
29	0	0	2048
30	0	0	2051
31	0	0	2045
32	0	0	2054
33	0	0	2076
34	0	0	2083
35	0	0	2067
36	0	0	2068
37	0	0	2064
38	0	0	2053
39	0	0	2065
40	0	0	2076
41	0	0	2080
42	0	0	2073
43	0	0	2058
44	0	0	2061
45	0	0	2067
46	0	0	2065
47	0	0	2075
48	0	0	2081
49	0	0	2068
50	0	0	2058
51	0	0	2067
52	0	0	2070
53	0	0	2056
54	0	0	2069
55	0	0	2058
56	0	0	2070
57	0	0	2062
58	0	0	2052
59	0	0	2041
60	0	0	2039
61	0	0	2049
62	0	0	2081
63	0	0	2104
64	0	0	2131
65	0	0	2122
66	0	0	2103
67	0	0	2080
68	0	0	2047
69	0	0	2029
70	0	0	2038
71	0	0	2043
72	0	0	2049
73	0	0	2063
74	0	0	2055
75	0	0	2050
76	0	0	2061
77	0	0	2069
78	0	0	2070
79	0	0	2085
80	0	0	2061
81	0	0	2068
82	0	0	2062
83	0	0	2071
84	0	0	2071
85	0	0	2069
86	0	0	2067
87	0	0	2071
88	0	0	2055
89	0	0	2062
90	0	0	2058
91	0	0	2059
92	0	0	2064
93	0	0	2067
94	0	0	2069
95	0	0	2086
96	0	0	2076
97	0	0	2063
98	0	0	2058
99	0	0	2054
100	0	0	2055
101	0	0	2056
102	0	0	2079
103	0	0	2090
104	0	0	2099
105	0	0	2056
106	0	0	2060
107	0	0	2070
108	0	0	2062
109	0	0	2050
110	0	0	2060
111	0	0	2046
112	0	0	2056
113	0	0	2067
114	0	0	2068
115	0	0	2066
116	0	0	2053
117	0	0	2049
118	0	0	2055
119	0	0	2039
120	0	0	2059
121	0	0	2105
122	0	0	2116
123	0	0	2108
124	0	0	2104
125	0	0	2036
126	0	0	2012
127	0	0	2023
0	0	0	2050
1	0	0	2076
2	0	0	2102
3	0	0	2111
4	0	0	2063
5	0	0	2006
6	0	0	2022
7	0	0	2058
8	0	0	2083
9	0	0	2093
10	0	0	2149
11	0	0	2147
12	0	0	2086
13	0	0	2016
14	0	0	2010
15	0	0	2025
16	0	0	2029
17	0	0	2062
18	0	0	2059
19	0	0	2052
20	0	0	2034
21	0	0	2037
22	0	0	2060
23	0	0	2070
24	0	0	2072
25	0	0	2086
26	0	0	2112
27	0	0	2114
28	0	0	2082
29	0	0	2081
30	0	0	2082
31	0	0	2072
32	0	0	2041
33	0	0	2014
34	0	0	2041
35	0	0	2045
36	0	0	2055
37	0	0	2072
38	0	0	2082
39	0	0	2112
40	0	0	2062
41	0	0	2054
42	0	0	2073
43	0	0	2075
44	0	0	2075
45	0	0	2067
46	0	0	2059
47	0	0	2060
48	0	0	2057
49	0	0	2053
50	0	0	2058
51	0	0	2056
52	0	0	2060
53	0	0	2067
54	0	0	2073
55	0	0	2093
56	0	0	2071
57	0	0	2055
58	0	0	2069
59	0	0	2063
60	0	0	2055
61	0	0	2057
62	0	0	2055
63	0	0	2026
64	0	0	2044
65	0	0	2081
66	0	0	2114
67	0	0	2116
68	0	0	2101
69	0	0	2080
70	0	0	2053
71	0	0	2063
72	0	0	2043
73	0	0	2035
74	0	0	2048
75	0	0	2085
76	0	0	2080
77	0	0	2074
78	0	0	2064
79	0	0	2082
80	0	0	2053
81	0	0	2039
82	0	0	2052
83	0	0	2061
84	0	0	2050
85	0	0	2052
86	0	0	2052
87	0	0	2060
88	0	0	2075
89	0	0	2075
90	0	0	2071
91	0	0	2057
92	0	0	2059
93	0	0	2058
94	0	0	2051
95	0	0	2072
96	0	0	2059
97	0	0	2071
98	0	0	2079
99	0	0	2077
100	0	0	2084
101	0	0	2091
102	0	0	2066
103	0	0	2082
104	0	0	2058
105	0	0	2054
106	0	0	2056
107	0	0	2080
108	0	0	2080
109	0	0	2087
110	0	0	2051
111	0	0	2055
112	0	0	2082
113	0	0	2090
114	0	0	2075
115	0	0	2054
116	0	0	2053
117	0	0	2067
118	0	0	2068
119	0	0	2056
120	0	0	2057
121	0	0	2064
122	0	0	2066
123	0	0	2063
124	0	0	2074
125	0	0	2062
126	0	0	2062
127	0	0	2068
0	0	0	2051
1	0	0	2061
2	0	0	2060
3	0	0	2070
4	0	0	2081
5	0	0	2094
6	0	0	2066
7	0	0	2070
8	0	0	2077
9	0	0	2053
10	0	0	2070
11	0	0	2073
12	0	0	2066
13	0	0	2056
14	0	0	2063
15	0	0	2059
16	0	0	2064
17	0	0	2068
18	0	0	2052
19	0	0	2065
20	0	0	2066
21	0	0	2053
22	0	0	2067
23	0	0	2089
24	0	0	2076
25	0	0	2073
26	0	0	2073
27	0	0	2049
28	0	0	2057
29	0	0	2059
30	0	0	2049
31	0	0	2058
32	0	0	2044
33	0	0	2053
34	0	0	2066
35	0	0	2082
36	0	0	2090
37	0	0	2109
38	0	0	2067
39	0	0	2057
40	0	0	2051
41	0	0	2060
42	0	0	2089
43	0	0	2066
44	0	0	2073
45	0	0	2083
46	0	0	2083
47	0	0	2045
48	0	0	2060
49	0	0	2068
50	0	0	2064
51	0	0	2049
52	0	0	2052
53	0	0	2058
54	0	0	2064
55	0	0	2073
56	0	0	2084
57	0	0	2058
58	0	0	2033
59	0	0	2044
60	0	0	2066
61	0	0	2069
62	0	0	2087
63	0	0	2099
64	0	0	2085
65	0	0	2073
66	0	0	2073
67	0	0	2074
68	0	0	2073
69	0	0	2040
70	0	0	2055
71	0	0	2070
72	0	0	2074
73	0	0	2048
74	0	0	2044
75	0	0	2046
76	0	0	2057
77	0	0	2073
78	0	0	2084
79	0	0	2092
80	0	0	2114
81	0	0	2100
82	0	0	2056
83	0	0	2028
84	0	0	2041
85	0	0	2057
86	0	0	2059
87	0	0	2063
88	0	0	2069
89	0	0	2078
90	0	0	2070
91	0	0	2058
92	0	0	2072
93	0	0	2056
94	0	0	2057
95	0	0	2054
96	0	0	2046
97	0	0	2040
98	0	0	2063
99	0	0	2080
100	0	0	2092
101	0	0	2107
102	0	0	2103
103	0	0	2057
104	0	0	2063
105	0	0	2066
106	0	0	2060
107	0	0	2059
108	0	0	2063
109	0	0	2044
110	0	0	2044
111	0	0	2056
112	0	0	2067
113	0	0	2074
114	0	0	2053
115	0	0	2057
116	0	0	2062
117	0	0	2066
118	0	0	2074
119	0	0	2076
120	0	0	2075
121	0	0	2078
122	0	0	2084
123	0	0	2055
124	0	0	2066
125	0	0	2056
126	0	0	2051
127	0	0	2059
0	0	0	2063
1	0	0	2065
2	0	0	2059
3	0	0	2059
4	0	0	2065
5	0	0	2070
6	0	0	2062
7	0	0	2061
8	0	0	2067
9	0	0	2068
10	0	0	2066
11	0	0	2066
12	0	0	2061
13	0	0	2063
14	0	0	2057
15	0	0	2074
16	0	0	2087
17	0	0	2062
18	0	0	2062
19	0	0	2051
20	0	0	2064
21	0	0	2074
22	0	0	2070
23	0	0	2066
24	0	0	2064
25	0	0	2060
26	0	0	2075
27	0	0	2082
28	0	0	2070
