# bioPlux Text File Format
# Version: 1
# StartDateTime: 2018-08-23 11:21:37
# SamplingFrequency: 1000
# SampledChannels: 5
# SamplingResolution: 12
# AcquiringDevice: 00:07:80:40:DD:D2
# EndOfHeader
0	0	0	2064
1	0	0	2066
2	0	0	2073
3	0	0	2076
4	0	0	2066
5	0	0	2052
6	0	0	2058
7	0	0	2079
8	0	0	2063
9	0	0	2057
10	0	0	2072
11	0	0	2071
12	0	0	2060
13	0	0	2061
14	0	0	2063
15	0	0	2056
16	0	0	2072
17	0	0	2074
18	0	0	2074
19	0	0	2065
20	0	0	2060
21	0	0	2057
22	0	0	2060
23	0	0	2058
24	0	0	2066
25	0	0	2066
26	0	0	2070
27	0	0	2081
28	0	0	2072
29	0	0	2068
30	0	0	2063
31	0	0	2059
32	0	0	2063
33	0	0	2070
34	0	0	2070
35	0	0	2060
36	0	0	2066
37	0	0	2062
38	0	0	2063
39	0	0	2061
40	0	0	2061
41	0	0	2064
42	0	0	2069
43	0	0	2067
44	0	0	2076
45	0	0	2070
46	0	0	2067
47	0	0	2062
48	0	0	2061
49	0	0	2056
50	0	0	2060
51	0	0	2068
52	0	0	2072
53	0	0	2073
54	0	0	2064
55	0	0	2065
56	0	0	2063
57	0	0	2059
58	0	0	2057
59	0	0	2072
60	0	0	2088
61	0	0	2064
62	0	0	2059
63	0	0	2064
64	0	0	2084
65	0	0	2075
66	0	0	2054
67	0	0	2064
68	0	0	2059
69	0	0	2061
70	0	0	2059
71	0	0	2067
72	0	0	2068
73	0	0	2063
74	0	0	2064
75	0	0	2073
76	0	0	2084
77	0	0	2062
78	0	0	2060
79	0	0	2057
80	0	0	2061
81	0	0	2063
82	0	0	2067
83	0	0	2067
84	0	0	2066
85	0	0	2070
86	0	0	2064
87	0	0	2063
88	0	0	2063
89	0	0	2065
90	0	0	2061
91	0	0	2065
92	0	0	2068
93	0	0	2060
94	0	0	2059
95	0	0	2066
96	0	0	2063
97	0	0	2065
98	0	0	2072
99	0	0	2076
100	0	0	2059
101	0	0	2070
102	0	0	2068
103	0	0	2066
104	0	0	2068
105	0	0	2063
106	0	0	2061
107	0	0	2055
108	0	0	2070
109	0	0	2063
110	0	0	2060
111	0	0	2070
112	0	0	2076
113	0	0	2080
114	0	0	2067
115	0	0	2063
116	0	0	2062
117	0	0	2060
118	0	0	2063
119	0	0	2061
120	0	0	2070
121	0	0	2069
122	0	0	2062
123	0	0	2064
124	0	0	2078
125	0	0	2057
126	0	0	2048
127	0	0	2064
0	0	0	2075
1	0	0	2071
2	0	0	2062
3	0	0	2067
4	0	0	2091
5	0	0	2063
6	0	0	2054
7	0	0	2060
8	0	0	2064
9	0	0	2063
10	0	0	2077
11	0	0	2073
12	0	0	2068
13	0	0	2076
14	0	0	2060
15	0	0	2059
16	0	0	2063
17	0	0	2069
18	0	0	2064
19	0	0	2068
20	0	0	2059
21	0	0	2057
22	0	0	2059
23	0	0	2069
24	0	0	2073
25	0	0	2070
26	0	0	2067
27	0	0	2072
28	0	0	2071
29	0	0	2063
30	0	0	2057
31	0	0	2056
32	0	0	2064
33	0	0	2062
34	0	0	2079
35	0	0	2070
36	0	0	2064
37	0	0	2061
38	0	0	2059
39	0	0	2064
40	0	0	2059
41	0	0	2061
42	0	0	2076
43	0	0	2074
44	0	0	2055
45	0	0	2064
46	0	0	2082
47	0	0	2070
48	0	0	2058
49	0	0	2065
50	0	0	2078
51	0	0	2065
52	0	0	2054
53	0	0	2056
54	0	0	2067
55	0	0	2078
56	0	0	2069
57	0	0	2063
58	0	0	2063
59	0	0	2062
60	0	0	2059
61	0	0	2066
62	0	0	2069
63	0	0	2072
64	0	0	2060
65	0	0	2059
66	0	0	2076
67	0	0	2063
68	0	0	2058
69	0	0	2061
70	0	0	2077
71	0	0	2059
72	0	0	2064
73	0	0	2059
74	0	0	2064
75	0	0	2068
76	0	0	2070
77	0	0	2070
78	0	0	2065
79	0	0	2062
80	0	0	2063
81	0	0	2059
82	0	0	2060
83	0	0	2066
84	0	0	2073
85	0	0	2057
86	0	0	2066
87	0	0	2061
88	0	0	2063
89	0	0	2072
90	0	0	2066
91	0	0	2066
92	0	0	2078
93	0	0	2066
94	0	0	2060
95	0	0	2058
96	0	0	2072
97	0	0	2060
98	0	0	2059
99	0	0	2071
100	0	0	2065
101	0	0	2055
102	0	0	2073
103	0	0	2070
104	0	0	2078
105	0	0	2065
106	0	0	2051
107	0	0	2056
108	0	0	2058
109	0	0	2071
110	0	0	2063
111	0	0	2061
112	0	0	2063
113	0	0	2060
114	0	0	2065
115	0	0	2063
116	0	0	2057
117	0	0	2063
118	0	0	2077
119	0	0	2079
120	0	0	2063
121	0	0	2054
122	0	0	2055
123	0	0	2056
124	0	0	2067
125	0	0	2064
126	0	0	2072
127	0	0	2069
0	0	0	2065
1	0	0	2064
2	0	0	2067
3	0	0	2061
4	0	0	2059
5	0	0	2072
6	0	0	2082
7	0	0	2064
8	0	0	2063
9	0	0	2066
10	0	0	2060
11	0	0	2060
12	0	0	2072
13	0	0	2067
14	0	0	2063
15	0	0	2066
16	0	0	2067
17	0	0	2063
18	0	0	2065
19	0	0	2061
20	0	0	2061
21	0	0	2070
22	0	0	2071
23	0	0	2060
24	0	0	2068
25	0	0	2073
26	0	0	2073
27	0	0	2073
28	0	0	2061
29	0	0	2061
30	0	0	2056
31	0	0	2058
32	0	0	2068
33	0	0	2080
34	0	0	2087
35	0	0	2040
36	0	0	2059
37	0	0	2060
38	0	0	2076
39	0	0	2072
40	0	0	2069
41	0	0	2058
42	0	0	2070
43	0	0	2078
44	0	0	2065
45	0	0	2061
46	0	0	2066
47	0	0	2071
48	0	0	2068
49	0	0	2065
50	0	0	2065
51	0	0	2059
52	0	0	2051
53	0	0	2068
54	0	0	2077
55	0	0	2056
56	0	0	2058
57	0	0	2074
58	0	0	2070
59	0	0	2071
60	0	0	2078
61	0	0	2066
62	0	0	2057
63	0	0	2056
64	0	0	2056
65	0	0	2060
66	0	0	2058
67	0	0	2069
68	0	0	2083
69	0	0	2072
70	0	0	2064
71	0	0	2069
72	0	0	2065
73	0	0	2058
74	0	0	2060
75	0	0	2058
76	0	0	2069
77	0	0	2082
78	0	0	2067
79	0	0	2062
80	0	0	2064
81	0	0	2063
82	0	0	2061
83	0	0	2067
84	0	0	2059
85	0	0	2062
86	0	0	2066
87	0	0	2062
88	0	0	2072
89	0	0	2064
90	0	0	2067
91	0	0	2074
92	0	0	2067
93	0	0	2052
94	0	0	2069
95	0	0	2060
96	0	0	2067
97	0	0	2062
98	0	0	2068
99	0	0	2086
100	0	0	2068
101	0	0	2068
102	0	0	2073
103	0	0	2062
104	0	0	2074
105	0	0	2065
106	0	0	2062
107	0	0	2069
108	0	0	2063
109	0	0	2058
110	0	0	2056
111	0	0	2061
112	0	0	2059
113	0	0	2081
114	0	0	2083
115	0	0	2068
116	0	0	2066
117	0	0	2052
118	0	0	2063
119	0	0	2073
120	0	0	2057
121	0	0	2064
122	0	0	2076
123	0	0	2067
124	0	0	2068
125	0	0	2070
126	0	0	2063
127	0	0	2065
0	0	0	2064
1	0	0	2060
2	0	0	2066
3	0	0	2071
4	0	0	2055
5	0	0	2061
6	0	0	2059
7	0	0	2080
8	0	0	2100
9	0	0	2088
10	0	0	2053
11	0	0	2064
12	0	0	2054
13	0	0	2068
14	0	0	2063
15	0	0	2062
16	0	0	2061
17	0	0	2059
18	0	0	2067
19	0	0	2061
20	0	0	2062
21	0	0	2068
22	0	0	2058
23	0	0	2061
24	0	0	2070
25	0	0	2068
26	0	0	2067
27	0	0	2059
28	0	0	2060
29	0	0	2068
30	0	0	2075
31	0	0	2062
32	0	0	2069
33	0	0	2077
34	0	0	2062
35	0	0	2064
36	0	0	2061
37	0	0	2060
38	0	0	2076
39	0	0	2066
40	0	0	2073
41	0	0	2052
42	0	0	2066
43	0	0	2076
44	0	0	2059
45	0	0	2061
46	0	0	2058
47	0	0	2084
48	0	0	2071
49	0	0	2067
50	0	0	2061
51	0	0	2066
52	0	0	2074
53	0	0	2071
54	0	0	2057
55	0	0	2058
56	0	0	2076
57	0	0	2059
58	0	0	2065
59	0	0	2061
60	0	0	2068
61	0	0	2064
62	0	0	2061
63	0	0	2064
64	0	0	2065
65	0	0	2067
66	0	0	2065
67	0	0	2068
68	0	0	2068
69	0	0	2063
70	0	0	2066
71	0	0	2067
72	0	0	2065
73	0	0	2068
74	0	0	2069
75	0	0	2069
76	0	0	2061
77	0	0	2063
78	0	0	2059
79	0	0	2067
80	0	0	2074
81	0	0	2067
82	0	0	2067
83	0	0	2085
84	0	0	2068
85	0	0	2059
86	0	0	2059
87	0	0	2060
88	0	0	2064
89	0	0	2061
90	0	0	2061
91	0	0	2073
92	0	0	2063
93	0	0	2068
94	0	0	2067
95	0	0	2062
96	0	0	2056
97	0	0	2062
98	0	0	2062
99	0	0	2066
100	0	0	2068
101	0	0	2066
102	0	0	2066
103	0	0	2056
104	0	0	2069
105	0	0	2070
106	0	0	2073
107	0	0	2065
108	0	0	2061
109	0	0	2058
110	0	0	2051
111	0	0	2079
112	0	0	2075
113	0	0	2060
114	0	0	2065
115	0	0	2055
116	0	0	2072
117	0	0	2064
118	0	0	2058
119	0	0	2070
120	0	0	2061
121	0	0	2077
122	0	0	2081
123	0	0	2072
124	0	0	2064
125	0	0	2049
126	0	0	2073
127	0	0	2050
0	0	0	2065
1	0	0	2075
2	0	0	2064
3	0	0	2062
4	0	0	2065
5	0	0	2060
6	0	0	2062
7	0	0	2076
8	0	0	2065
9	0	0	2068
10	0	0	2072
11	0	0	2070
12	0	0	2062
13	0	0	2060
14	0	0	2055
15	0	0	2055
16	0	0	2065
17	0	0	2075
18	0	0	2067
19	0	0	2060
20	0	0	2058
21	0	0	2066
22	0	0	2072
23	0	0	2063
24	0	0	2071
25	0	0	2075
26	0	0	2070
27	0	0	2071
28	0	0	2049
29	0	0	2066
30	0	0	2059
31	0	0	2064
32	0	0	2068
33	0	0	2069
34	0	0	2063
35	0	0	2060
36	0	0	2060
37	0	0	2060
38	0	0	2063
39	0	0	2080
40	0	0	2086
41	0	0	2070
42	0	0	2062
43	0	0	2063
44	0	0	2059
45	0	0	2060
46	0	0	2062
47	0	0	2063
48	0	0	2063
49	0	0	2060
50	0	0	2073
51	0	0	2070
52	0	0	2060
53	0	0	2065
54	0	0	2056
55	0	0	2063
56	0	0	2062
57	0	0	2079
58	0	0	2073
59	0	0	2064
60	0	0	2060
61	0	0	2055
62	0	0	2059
63	0	0	2080
64	0	0	2069
65	0	0	2062
66	0	0	2066
67	0	0	2069
68	0	0	2078
69	0	0	2073
70	0	0	2063
71	0	0	2064
72	0	0	2068
73	0	0	2066
74	0	0	2065
75	0	0	2057
76	0	0	2062
77	0	0	2067
78	0	0	2068
79	0	0	2072
80	0	0	2072
81	0	0	2060
82	0	0	2064
83	0	0	2061
84	0	0	2065
85	0	0	2065
86	0	0	2076
87	0	0	2069
88	0	0	2072
89	0	0	2057
90	0	0	2057
91	0	0	2064
92	0	0	2080
93	0	0	2060
94	0	0	2060
95	0	0	2067
96	0	0	2070
97	0	0	2074
98	0	0	2071
99	0	0	2060
100	0	0	2063
101	0	0	2057
102	0	0	2062
103	0	0	2061
104	0	0	2063
105	0	0	2080
106	0	0	2080
107	0	0	2078
108	0	0	2064
109	0	0	2075
110	0	0	2070
111	0	0	2064
112	0	0	2061
113	0	0	2055
114	0	0	2060
115	0	0	2061
116	0	0	2062
117	0	0	2066
118	0	0	2068
119	0	0	2063
120	0	0	2061
121	0	0	2073
122	0	0	2067
123	0	0	2064
124	0	0	2067
125	0	0	2065
126	0	0	2063
127	0	0	2068
0	0	0	2067
1	0	0	2067
2	0	0	2059
3	0	0	2072
4	0	0	2057
5	0	0	2066
6	0	0	2087
7	0	0	2072
8	0	0	2060
9	0	0	2065
10	0	0	2064
11	0	0	2063
12	0	0	2082
13	0	0	2049
14	0	0	2062
15	0	0	2064
16	0	0	2072
17	0	0	2073
18	0	0	2068
19	0	0	2057
20	0	0	2062
21	0	0	2068
22	0	0	2072
23	0	0	2065
24	0	0	2060
25	0	0	2057
26	0	0	2070
27	0	0	2068
28	0	0	2062
29	0	0	2063
30	0	0	2064
31	0	0	2071
32	0	0	2084
33	0	0	2069
34	0	0	2070
35	0	0	2066
36	0	0	2063
37	0	0	2065
38	0	0	2064
39	0	0	2064
40	0	0	2061
41	0	0	2060
42	0	0	2070
43	0	0	2067
44	0	0	2059
45	0	0	2064
46	0	0	2072
47	0	0	2065
48	0	0	2067
49	0	0	2057
50	0	0	2069
51	0	0	2068
52	0	0	2060
53	0	0	2067
54	0	0	2076
55	0	0	2065
56	0	0	2063
57	0	0	2061
58	0	0	2067
59	0	0	2065
60	0	0	2064
61	0	0	2062
62	0	0	2068
63	0	0	2063
64	0	0	2060
65	0	0	2057
66	0	0	2063
67	0	0	2066
68	0	0	2066
69	0	0	2075
70	0	0	2075
71	0	0	2057
72	0	0	2068
73	0	0	2059
74	0	0	2062
75	0	0	2057
76	0	0	2059
77	0	0	2070
78	0	0	2078
79	0	0	2062
80	0	0	2077
81	0	0	2073
82	0	0	2071
83	0	0	2070
84	0	0	2063
85	0	0	2054
86	0	0	2067
87	0	0	2059
88	0	0	2059
89	0	0	2064
90	0	0	2073
91	0	0	2059
92	0	0	2057
93	0	0	2063
94	0	0	2071
95	0	0	2063
96	0	0	2072
97	0	0	2084
98	0	0	2076
99	0	0	2054
100	0	0	2069
101	0	0	2057
102	0	0	2065
103	0	0	2062
104	0	0	2065
105	0	0	2064
106	0	0	2066
107	0	0	2063
108	0	0	2059
109	0	0	2065
110	0	0	2064
111	0	0	2060
112	0	0	2066
113	0	0	2070
114	0	0	2078
115	0	0	2073
116	0	0	2056
117	0	0	2059
118	0	0	2060
119	0	0	2066
120	0	0	2076
121	0	0	2068
122	0	0	2073
123	0	0	2067
124	0	0	2061
125	0	0	2063
126	0	0	2063
127	0	0	2056
0	0	0	2060
1	0	0	2071
2	0	0	2078
3	0	0	2060
4	0	0	2060
5	0	0	2069
6	0	0	2076
7	0	0	2066
8	0	0	2056
9	0	0	2058
10	0	0	2072
11	0	0	2060
12	0	0	2072
13	0	0	2076
14	0	0	2080
15	0	0	2074
16	0	0	2061
17	0	0	2063
18	0	0	2058
19	0	0	2058
20	0	0	2068
21	0	0	2066
22	0	0	2063
23	0	0	2072
24	0	0	2066
25	0	0	2076
26	0	0	2072
27	0	0	2065
28	0	0	2061
29	0	0	2064
30	0	0	2063
31	0	0	2066
32	0	0	2063
33	0	0	2067
34	0	0	2066
35	0	0	2069
36	0	0	2078
37	0	0	2056
38	0	0	2060
39	0	0	2065
40	0	0	2076
41	0	0	2081
42	0	0	2079
43	0	0	2073
44	0	0	2064
45	0	0	2058
46	0	0	2054
47	0	0	2052
48	0	0	2063
49	0	0	2063
50	0	0	2064
51	0	0	2062
52	0	0	2067
53	0	0	2071
54	0	0	2064
55	0	0	2066
56	0	0	2066
57	0	0	2063
58	0	0	2062
59	0	0	2060
60	0	0	2064
61	0	0	2064
62	0	0	2066
63	0	0	2066
64	0	0	2068
65	0	0	2059
66	0	0	2065
67	0	0	2061
68	0	0	2067
69	0	0	2077
70	0	0	2068
71	0	0	2062
72	0	0	2056
73	0	0	2061
74	0	0	2060
75	0	0	2074
76	0	0	2079
77	0	0	2066
78	0	0	2062
79	0	0	2054
80	0	0	2068
81	0	0	2067
82	0	0	2062
83	0	0	2061
84	0	0	2060
85	0	0	2059
86	0	0	2066
87	0	0	2077
88	0	0	2070
89	0	0	2069
90	0	0	2079
91	0	0	2062
92	0	0	2052
93	0	0	2054
94	0	0	2064
95	0	0	2063
96	0	0	2062
97	0	0	2069
98	0	0	2076
99	0	0	2079
100	0	0	2071
101	0	0	2062
102	0	0	2067
103	0	0	2054
104	0	0	2048
105	0	0	2055
106	0	0	2074
107	0	0	2088
108	0	0	2072
109	0	0	2065
110	0	0	2061
111	0	0	2072
112	0	0	2060
113	0	0	2066
114	0	0	2078
115	0	0	2065
116	0	0	2059
117	0	0	2061
118	0	0	2057
119	0	0	2071
120	0	0	2063
121	0	0	2068
122	0	0	2062
123	0	0	2068
124	0	0	2065
125	0	0	2062
126	0	0	2064
127	0	0	2066
0	0	0	2072
1	0	0	2073
2	0	0	2081
3	0	0	2056
4	0	0	2063
5	0	0	2068
6	0	0	2062
7	0	0	2063
8	0	0	2060
9	0	0	2065
10	0	0	2076
11	0	0	2088
12	0	0	2062
13	0	0	2059
14	0	0	2061
15	0	0	2064
16	0	0	2066
17	0	0	2068
18	0	0	2065
19	0	0	2061
20	0	0	2060
21	0	0	2065
22	0	0	2068
23	0	0	2067
24	0	0	2061
25	0	0	2064
26	0	0	2068
27	0	0	2070
28	0	0	2056
29	0	0	2063
30	0	0	2072
31	0	0	2073
32	0	0	2069
33	0	0	2061
34	0	0	2059
35	0	0	2067
36	0	0	2063
37	0	0	2065
38	0	0	2069
39	0	0	2062
40	0	0	2069
41	0	0	2071
42	0	0	2066
43	0	0	2060
44	0	0	2067
45	0	0	2056
46	0	0	2064
47	0	0	2066
48	0	0	2069
49	0	0	2072
50	0	0	2063
51	0	0	2059
52	0	0	2061
53	0	0	2064
54	0	0	2069
55	0	0	2071
56	0	0	2066
57	0	0	2070
58	0	0	2063
59	0	0	2072
60	0	0	2063
61	0	0	2064
62	0	0	2064
63	0	0	2062
64	0	0	2062
65	0	0	2064
66	0	0	2068
67	0	0	2063
68	0	0	2062
69	0	0	2067
70	0	0	2072
71	0	0	2068
72	0	0	2067
73	0	0	2066
74	0	0	2081
75	0	0	2074
76	0	0	2068
77	0	0	2059
78	0	0	2063
79	0	0	2064
80	0	0	2060
81	0	0	2064
82	0	0	2065
83	0	0	2059
84	0	0	2058
85	0	0	2082
86	0	0	2054
87	0	0	2071
88	0	0	2056
89	0	0	2069
90	0	0	2062
91	0	0	2064
92	0	0	2076
93	0	0	2064
94	0	0	2061
95	0	0	2064
96	0	0	2068
97	0	0	2064
98	0	0	2069
99	0	0	2067
100	0	0	2070
101	0	0	2073
102	0	0	2070
103	0	0	2058
104	0	0	2058
105	0	0	2064
106	0	0	2070
107	0	0	2082
108	0	0	2068
109	0	0	2062
110	0	0	2056
111	0	0	2063
112	0	0	2067
113	0	0	2069
114	0	0	2065
115	0	0	2065
116	0	0	2065
117	0	0	2060
118	0	0	2056
119	0	0	2063
120	0	0	2071
121	0	0	2067
122	0	0	2073
123	0	0	2060
124	0	0	2065
125	0	0	2063
126	0	0	2059
127	0	0	2066
0	0	0	2066
1	0	0	2068
2	0	0	2072
3	0	0	2070
4	0	0	2079
5	0	0	2074
6	0	0	2068
7	0	0	2060
8	0	0	2059
9	0	0	2065
10	0	0	2065
11	0	0	2052
12	0	0	2068
13	0	0	2074
14	0	0	2079
15	0	0	2066
16	0	0	2059
17	0	0	2064
18	0	0	2065
19	0	0	2066
20	0	0	2062
21	0	0	2070
22	0	0	2055
23	0	0	2063
24	0	0	2068
25	0	0	2063
26	0	0	2068
27	0	0	2068
28	0	0	2070
29	0	0	2057
30	0	0	2064
31	0	0	2074
32	0	0	2065
33	0	0	2059
34	0	0	2063
35	0	0	2066
36	0	0	2062
37	0	0	2069
38	0	0	2068
39	0	0	2067
40	0	0	2073
41	0	0	2080
42	0	0	2076
43	0	0	2070
44	0	0	2057
45	0	0	2057
46	0	0	2069
47	0	0	2061
48	0	0	2060
49	0	0	2063
50	0	0	2075
51	0	0	2065
52	0	0	2063
53	0	0	2062
54	0	0	2064
55	0	0	2065
56	0	0	2065
57	0	0	2058
58	0	0	2065
59	0	0	2065
60	0	0	2076
61	0	0	2079
62	0	0	2071
63	0	0	2058
64	0	0	2069
65	0	0	2066
66	0	0	2077
67	0	0	2065
68	0	0	2064
69	0	0	2067
70	0	0	2065
71	0	0	2062
72	0	0	2065
73	0	0	2058
74	0	0	2061
75	0	0	2068
76	0	0	2071
77	0	0	2065
78	0	0	2067
79	0	0	2063
80	0	0	2062
81	0	0	2074
82	0	0	2062
83	0	0	2056
84	0	0	2063
85	0	0	2065
86	0	0	2065
87	0	0	2068
88	0	0	2070
89	0	0	2076
90	0	0	2078
91	0	0	2056
92	0	0	2055
93	0	0	2065
94	0	0	2059
95	0	0	2065
96	0	0	2064
97	0	0	2067
98	0	0	2065
99	0	0	2065
100	0	0	2071
101	0	0	2071
102	0	0	2080
103	0	0	2062
104	0	0	2053
105	0	0	2067
106	0	0	2074
107	0	0	2064
108	0	0	2067
109	0	0	2065
110	0	0	2066
111	0	0	2066
112	0	0	2076
113	0	0	2063
114	0	0	2058
115	0	0	2059
116	0	0	2062
117	0	0	2065
118	0	0	2067
119	0	0	2063
120	0	0	2062
121	0	0	2066
122	0	0	2067
123	0	0	2065
124	0	0	2073
125	0	0	2068
126	0	0	2064
127	0	0	2061
0	0	0	2060
1	0	0	2071
2	0	0	2073
3	0	0	2066
4	0	0	2081
5	0	0	2051
6	0	0	2066
7	0	0	2065
8	0	0	2065
9	0	0	2070
10	0	0	2066
11	0	0	2067
12	0	0	2068
13	0	0	2063
14	0	0	2064
15	0	0	2059
16	0	0	2065
17	0	0	2060
18	0	0	2060
19	0	0	2070
20	0	0	2067
21	0	0	2066
22	0	0	2071
23	0	0	2076
24	0	0	2058
25	0	0	2084
26	0	0	2068
27	0	0	2068
28	0	0	2068
29	0	0	2066
30	0	0	2065
31	0	0	2059
32	0	0	2062
33	0	0	2070
34	0	0	2061
35	0	0	2069
36	0	0	2064
37	0	0	2064
38	0	0	2063
39	0	0	2065
40	0	0	2062
41	0	0	2061
42	0	0	2062
43	0	0	2069
44	0	0	2060
45	0	0	2062
46	0	0	2067
47	0	0	2081
48	0	0	2077
49	0	0	2067
50	0	0	2058
51	0	0	2058
52	0	0	2067
53	0	0	2064
54	0	0	2061
55	0	0	2061
56	0	0	2071
57	0	0	2058
58	0	0	2059
59	0	0	2065
60	0	0	2072
61	0	0	2068
62	0	0	2074
63	0	0	2059
64	0	0	2060
65	0	0	2064
66	0	0	2075
67	0	0	2088
68	0	0	2071
69	0	0	2067
70	0	0	2060
71	0	0	2061
72	0	0	2059
73	0	0	2059
74	0	0	2065
75	0	0	2064
76	0	0	2061
77	0	0	2065
78	0	0	2064
79	0	0	2068
80	0	0	2069
81	0	0	2061
82	0	0	2063
83	0	0	2065
84	0	0	2067
85	0	0	2073
86	0	0	2067
87	0	0	2068
88	0	0	2070
89	0	0	2067
90	0	0	2061
91	0	0	2063
92	0	0	2068
93	0	0	2075
94	0	0	2060
95	0	0	2058
96	0	0	2074
97	0	0	2080
98	0	0	2077
99	0	0	2063
100	0	0	2058
101	0	0	2055
102	0	0	2076
103	0	0	2072
104	0	0	2074
105	0	0	2061
106	0	0	2063
107	0	0	2068
108	0	0	2064
109	0	0	2059
110	0	0	2063
111	0	0	2064
112	0	0	2076
113	0	0	2063
114	0	0	2063
115	0	0	2057
116	0	0	2063
117	0	0	2063
118	0	0	2065
119	0	0	2069
120	0	0	2075
121	0	0	2069
122	0	0	2061
123	0	0	2057
124	0	0	2060
125	0	0	2069
126	0	0	2067
127	0	0	2067
0	0	0	2068
1	0	0	2067
2	0	0	2073
3	0	0	2074
4	0	0	2076
5	0	0	2069
6	0	0	2069
7	0	0	2060
8	0	0	2063
9	0	0	2063
10	0	0	2052
11	0	0	2067
12	0	0	2068
13	0	0	2069
14	0	0	2062
15	0	0	2066
16	0	0	2066
17	0	0	2065
18	0	0	2056
19	0	0	2061
20	0	0	2071
21	0	0	2071
22	0	0	2068
23	0	0	2071
24	0	0	2067
25	0	0	2064
26	0	0	2057
27	0	0	2067
28	0	0	2052
29	0	0	2082
30	0	0	2078
31	0	0	2066
32	0	0	2056
33	0	0	2058
34	0	0	2071
35	0	0	2063
36	0	0	2060
37	0	0	2059
38	0	0	2060
39	0	0	2063
40	0	0	2067
41	0	0	2057
42	0	0	2067
43	0	0	2056
44	0	0	2062
45	0	0	2070
46	0	0	2074
47	0	0	2070
48	0	0	2067
49	0	0	2063
50	0	0	2063
51	0	0	2067
52	0	0	2063
53	0	0	2065
54	0	0	2056
55	0	0	2064
56	0	0	2069
57	0	0	2070
58	0	0	2068
59	0	0	2064
60	0	0	2074
61	0	0	2070
62	0	0	2068
63	0	0	2061
64	0	0	2067
65	0	0	2064
66	0	0	2059
67	0	0	2065
68	0	0	2066
69	0	0	2062
70	0	0	2065
71	0	0	2065
72	0	0	2060
73	0	0	2064
74	0	0	2063
75	0	0	2070
76	0	0	2065
77	0	0	2068
78	0	0	2068
79	0	0	2068
80	0	0	2059
81	0	0	2065
82	0	0	2062
83	0	0	2063
84	0	0	2063
85	0	0	2061
86	0	0	2059
87	0	0	2078
88	0	0	2076
89	0	0	2056
90	0	0	2058
91	0	0	2064
92	0	0	2068
93	0	0	2066
94	0	0	2087
95	0	0	2087
96	0	0	2059
97	0	0	2050
98	0	0	2051
99	0	0	2060
100	0	0	2064
101	0	0	2067
102	0	0	2076
103	0	0	2080
104	0	0	2080
105	0	0	2057
106	0	0	2060
107	0	0	2060
108	0	0	2061
109	0	0	2065
110	0	0	2063
111	0	0	2064
112	0	0	2072
113	0	0	2066
114	0	0	2072
115	0	0	2054
116	0	0	2053
117	0	0	2076
118	0	0	2077
119	0	0	2073
120	0	0	2067
121	0	0	2062
122	0	0	2064
123	0	0	2066
124	0	0	2061
125	0	0	2070
126	0	0	2064
127	0	0	2061
0	0	0	2060
1	0	0	2060
2	0	0	2071
3	0	0	2065
4	0	0	2073
5	0	0	2070
6	0	0	2076
7	0	0	2074
8	0	0	2064
9	0	0	2062
10	0	0	2060
11	0	0	2073
12	0	0	2057
13	0	0	2062
14	0	0	2066
15	0	0	2072
16	0	0	2067
17	0	0	2064
18	0	0	2060
19	0	0	2067
20	0	0	2063
21	0	0	2071
22	0	0	2079
23	0	0	2068
24	0	0	2062
25	0	0	2065
26	0	0	2063
27	0	0	2058
28	0	0	2066
29	0	0	2071
30	0	0	2075
31	0	0	2068
32	0	0	2060
33	0	0	2059
34	0	0	2062
35	0	0	2063
36	0	0	2074
37	0	0	2070
38	0	0	2065
39	0	0	2058
40	0	0	2060
41	0	0	2075
42	0	0	2067
43	0	0	2057
44	0	0	2060
45	0	0	2065
46	0	0	2065
47	0	0	2074
48	0	0	2069
49	0	0	2066
50	0	0	2064
51	0	0	2066
52	0	0	2061
53	0	0	2065
54	0	0	2068
55	0	0	2067
56	0	0	2075
57	0	0	2065
58	0	0	2065
59	0	0	2064
60	0	0	2056
61	0	0	2059
62	0	0	2073
63	0	0	2073
64	0	0	2073
65	0	0	2065
66	0	0	2058
67	0	0	2052
68	0	0	2058
69	0	0	2064
70	0	0	2066
71	0	0	2072
72	0	0	2072
73	0	0	2076
74	0	0	2086
75	0	0	2070
76	0	0	2050
77	0	0	2057
78	0	0	2055
79	0	0	2055
80	0	0	2065
81	0	0	2065
82	0	0	2078
83	0	0	2065
84	0	0	2066
85	0	0	2057
86	0	0	2071
87	0	0	2069
88	0	0	2061
89	0	0	2058
90	0	0	2070
91	0	0	2065
92	0	0	2071
93	0	0	2062
94	0	0	2062
95	0	0	2061
96	0	0	2064
97	0	0	2058
98	0	0	2064
99	0	0	2060
100	0	0	2071
101	0	0	2064
102	0	0	2061
103	0	0	2069
104	0	0	2068
105	0	0	2070
106	0	0	2059
107	0	0	2061
108	0	0	2067
109	0	0	2070
110	0	0	2064
111	0	0	2066
112	0	0	2059
113	0	0	2080
114	0	0	2065
115	0	0	2059
116	0	0	2062
117	0	0	2059
118	0	0	2063
119	0	0	2069
120	0	0	2069
121	0	0	2062
122	0	0	2060
123	0	0	2064
124	0	0	2069
125	0	0	2063
126	0	0	2065
127	0	0	2068
0	0	0	2074
1	0	0	2068
2	0	0	2060
3	0	0	2051
4	0	0	2061
5	0	0	2076
6	0	0	2069
7	0	0	2066
8	0	0	2065
9	0	0	2065
10	0	0	2066
11	0	0	2064
12	0	0	2070
13	0	0	2067
14	0	0	2068
15	0	0	2065
16	0	0	2065
17	0	0	2061
18	0	0	2063
19	0	0	2062
20	0	0	2067
21	0	0	2059
22	0	0	2057
23	0	0	2070
24	0	0	2081
25	0	0	2072
26	0	0	2068
27	0	0	2069
28	0	0	2066
29	0	0	2056
30	0	0	2066
31	0	0	2062
32	0	0	2070
33	0	0	2057
34	0	0	2058
35	0	0	2081
36	0	0	2066
37	0	0	2062
38	0	0	2059
39	0	0	2056
40	0	0	2070
41	0	0	2070
42	0	0	2065
43	0	0	2064
44	0	0	2069
45	0	0	2060
46	0	0	2073
47	0	0	2067
48	0	0	2059
49	0	0	2065
50	0	0	2054
51	0	0	2070
52	0	0	2077
53	0	0	2073
54	0	0	2080
55	0	0	2070
56	0	0	2056
57	0	0	2065
58	0	0	2051
59	0	0	2076
60	0	0	2063
61	0	0	2063
62	0	0	2055
63	0	0	2062
64	0	0	2061
65	0	0	2068
66	0	0	2068
67	0	0	2069
68	0	0	2072
69	0	0	2061
70	0	0	2060
71	0	0	2064
72	0	0	2068
73	0	0	2067
74	0	0	2077
75	0	0	2063
76	0	0	2059
77	0	0	2063
78	0	0	2066
79	0	0	2065
80	0	0	2063
81	0	0	2059
82	0	0	2065
83	0	0	2066
84	0	0	2072
85	0	0	2069
86	0	0	2067
87	0	0	2062
88	0	0	2060
89	0	0	2065
90	0	0	2065
91	0	0	2061
92	0	0	2063
93	0	0	2066
94	0	0	2069
95	0	0	2063
96	0	0	2063
97	0	0	2064
98	0	0	2063
99	0	0	2063
100	0	0	2067
101	0	0	2075
102	0	0	2064
103	0	0	2064
104	0	0	2071
105	0	0	2062
106	0	0	2061
107	0	0	2063
108	0	0	2065
109	0	0	2065
110	0	0	2066
111	0	0	2064
112	0	0	2066
113	0	0	2064
114	0	0	2060
115	0	0	2065
116	0	0	2067
117	0	0	2072
118	0	0	2065
119	0	0	2063
120	0	0	2062
121	0	0	2061
122	0	0	2062
123	0	0	2065
124	0	0	2066
125	0	0	2070
126	0	0	2075
127	0	0	2067
0	0	0	2072
1	0	0	2064
2	0	0	2058
3	0	0	2060
4	0	0	2061
5	0	0	2068
6	0	0	2065
7	0	0	2064
8	0	0	2064
9	0	0	2066
10	0	0	2061
11	0	0	2064
12	0	0	2063
13	0	0	2065
14	0	0	2080
15	0	0	2074
16	0	0	2064
17	0	0	2059
18	0	0	2058
19	0	0	2065
20	0	0	2068
21	0	0	2070
22	0	0	2067
23	0	0	2065
24	0	0	2062
25	0	0	2065
26	0	0	2065
27	0	0	2057
28	0	0	2063
29	0	0	2073
30	0	0	2069
31	0	0	2072
32	0	0	2071
33	0	0	2063
34	0	0	2064
35	0	0	2060
36	0	0	2074
37	0	0	2067
38	0	0	2067
39	0	0	2065
40	0	0	2068
41	0	0	2059
42	0	0	2058
43	0	0	2057
44	0	0	2076
45	0	0	2076
46	0	0	2062
47	0	0	2060
48	0	0	2061
49	0	0	2086
50	0	0	2055
51	0	0	2066
52	0	0	2072
53	0	0	2063
54	0	0	2058
55	0	0	2061
56	0	0	2062
57	0	0	2069
58	0	0	2072
59	0	0	2067
60	0	0	2063
61	0	0	2067
62	0	0	2064
63	0	0	2070
64	0	0	2068
65	0	0	2069
66	0	0	2063
67	0	0	2065
68	0	0	2062
69	0	0	2065
70	0	0	2062
71	0	0	2064
72	0	0	2066
73	0	0	2065
74	0	0	2067
75	0	0	2062
76	0	0	2063
77	0	0	2058
78	0	0	2062
79	0	0	2072
80	0	0	2065
81	0	0	2067
82	0	0	2068
83	0	0	2064
84	0	0	2068
85	0	0	2064
86	0	0	2065
87	0	0	2064
88	0	0	2067
89	0	0	2068
90	0	0	2062
91	0	0	2060
92	0	0	2069
93	0	0	2076
94	0	0	2074
95	0	0	2056
96	0	0	2064
97	0	0	2069
98	0	0	2067
99	0	0	2060
100	0	0	2065
101	0	0	2064
102	0	0	2066
103	0	0	2067
104	0	0	2066
105	0	0	2065
106	0	0	2067
107	0	0	2065
108	0	0	2067
109	0	0	2063
110	0	0	2064
111	0	0	2066
112	0	0	2065
113	0	0	2066
114	0	0	2065
115	0	0	2062
116	0	0	2065
117	0	0	2065
118	0	0	2066
119	0	0	2064
120	0	0	2078
121	0	0	2065
122	0	0	2062
123	0	0	2066
124	0	0	2062
125	0	0	2062
126	0	0	2071
127	0	0	2067
0	0	0	2061
1	0	0	2066
2	0	0	2072
3	0	0	2056
4	0	0	2056
5	0	0	2075
6	0	0	2076
7	0	0	2064
8	0	0	2067
9	0	0	2069
10	0	0	2056
11	0	0	2057
12	0	0	2067
13	0	0	2067
14	0	0	2073
15	0	0	2082
16	0	0	2066
17	0	0	2055
18	0	0	2050
19	0	0	2066
20	0	0	2084
21	0	0	2087
22	0	0	2060
23	0	0	2057
24	0	0	2067
25	0	0	2074
26	0	0	2062
27	0	0	2062
28	0	0	2060
29	0	0	2055
30	0	0	2061
31	0	0	2056
32	0	0	2055
33	0	0	2057
34	0	0	2068
35	0	0	2073
36	0	0	2076
37	0	0	2074
38	0	0	2064
39	0	0	2058
40	0	0	2070
41	0	0	2079
42	0	0	2079
43	0	0	2078
44	0	0	2101
45	0	0	2075
46	0	0	2054
47	0	0	2044
48	0	0	2025
49	0	0	2038
50	0	0	2033
51	0	0	2022
52	0	0	2012
53	0	0	2037
54	0	0	2052
55	0	0	2065
56	0	0	2101
57	0	0	2160
58	0	0	2171
59	0	0	2120
60	0	0	2098
61	0	0	2093
62	0	0	2068
63	0	0	2079
64	0	0	2111
65	0	0	2111
66	0	0	2073
67	0	0	2038
68	0	0	2014
69	0	0	2028
70	0	0	2018
71	0	0	2016
72	0	0	2028
73	0	0	2046
74	0	0	2050
75	0	0	2056
76	0	0	2057
77	0	0	2057
78	0	0	2055
79	0	0	2066
80	0	0	2065
81	0	0	2064
82	0	0	2063
83	0	0	2045
84	0	0	2053
85	0	0	2061
86	0	0	2087
87	0	0	2098
88	0	0	2110
89	0	0	2100
90	0	0	2102
91	0	0	2084
92	0	0	2062
93	0	0	2060
94	0	0	2048
95	0	0	2053
96	0	0	2061
97	0	0	2054
98	0	0	2057
99	0	0	2078
100	0	0	2080
101	0	0	2068
102	0	0	2050
103	0	0	2059
104	0	0	2063
105	0	0	2061
106	0	0	2064
107	0	0	2066
108	0	0	2089
109	0	0	2056
110	0	0	2055
111	0	0	2067
112	0	0	2070
113	0	0	2068
114	0	0	2053
115	0	0	2064
116	0	0	2064
117	0	0	2070
118	0	0	2068
119	0	0	2059
120	0	0	2065
121	0	0	2071
122	0	0	2065
123	0	0	2061
124	0	0	2060
125	0	0	2057
126	0	0	2056
127	0	0	2056
0	0	0	2058
1	0	0	2073
2	0	0	2092
3	0	0	2081
4	0	0	2073
5	0	0	2084
6	0	0	2066
7	0	0	2058
8	0	0	2062
9	0	0	2059
10	0	0	2046
11	0	0	2052
12	0	0	2060
13	0	0	2072
14	0	0	2051
15	0	0	2046
16	0	0	2051
17	0	0	2052
18	0	0	2076
19	0	0	2099
20	0	0	2094
21	0	0	2057
22	0	0	2069
23	0	0	2056
24	0	0	2079
25	0	0	2067
26	0	0	2069
27	0	0	2059
28	0	0	2071
29	0	0	2065
30	0	0	2066
31	0	0	2085
32	0	0	2069
33	0	0	2049
34	0	0	2046
35	0	0	2037
36	0	0	2035
37	0	0	2057
38	0	0	2055
39	0	0	2063
40	0	0	2083
41	0	0	2082
42	0	0	2074
43	0	0	2078
44	0	0	2042
45	0	0	2064
46	0	0	2068
47	0	0	2059
48	0	0	2092
49	0	0	2103
50	0	0	2105
51	0	0	2104
52	0	0	2085
53	0	0	2048
54	0	0	2028
55	0	0	2030
56	0	0	2033
57	0	0	2042
58	0	0	2064
59	0	0	2061
60	0	0	2064
61	0	0	2074
62	0	0	2069
63	0	0	2071
64	0	0	2053
65	0	0	2067
66	0	0	2078
67	0	0	2074
68	0	0	2062
69	0	0	2060
70	0	0	2061
71	0	0	2050
72	0	0	2056
73	0	0	2020
74	0	0	2044
75	0	0	2069
76	0	0	2091
77	0	0	2110
78	0	0	2108
79	0	0	2086
80	0	0	2072
81	0	0	2102
82	0	0	2067
83	0	0	2063
84	0	0	2048
85	0	0	2054
86	0	0	2059
87	0	0	2037
88	0	0	2027
89	0	0	2051
90	0	0	2057
91	0	0	2046
92	0	0	2054
93	0	0	2055
94	0	0	2096
95	0	0	2138
96	0	0	2105
97	0	0	2042
98	0	0	2022
99	0	0	2042
100	0	0	2046
101	0	0	2079
102	0	0	2117
103	0	0	2127
104	0	0	2138
105	0	0	2124
106	0	0	2087
107	0	0	2023
108	0	0	2023
109	0	0	2016
110	0	0	1993
111	0	0	1990
112	0	0	2018
113	0	0	2067
114	0	0	2094
115	0	0	2087
116	0	0	2085
117	0	0	2080
118	0	0	2099
119	0	0	2083
120	0	0	2053
121	0	0	2037
122	0	0	2041
123	0	0	2035
124	0	0	2041
125	0	0	2048
126	0	0	2073
127	0	0	2087
0	0	0	2071
1	0	0	2090
2	0	0	2090
3	0	0	2041
4	0	0	2036
5	0	0	2066
6	0	0	2102
7	0	0	2087
8	0	0	2114
9	0	0	2103
10	0	0	2096
11	0	0	2049
12	0	0	2040
13	0	0	2029
14	0	0	2109
15	0	0	2074
16	0	0	2017
17	0	0	2019
18	0	0	2035
19	0	0	2054
20	0	0	2101
21	0	0	2097
22	0	0	2107
23	0	0	2074
24	0	0	2079
25	0	0	2043
26	0	0	2020
27	0	0	2039
28	0	0	2061
29	0	0	2033
30	0	0	2072
31	0	0	2118
32	0	0	2092
33	0	0	2076
34	0	0	2061
35	0	0	2078
36	0	0	2042
37	0	0	1997
38	0	0	2007
39	0	0	2065
40	0	0	2094
41	0	0	2110
42	0	0	2118
43	0	0	2109
44	0	0	2070
45	0	0	2039
46	0	0	2035
47	0	0	2077
48	0	0	2092
49	0	0	2075
50	0	0	2087
51	0	0	2049
52	0	0	2026
53	0	0	1985
54	0	0	2003
55	0	0	2024
56	0	0	2039
57	0	0	2060
58	0	0	2104
59	0	0	2146
60	0	0	2128
61	0	0	2098
62	0	0	2142
63	0	0	2101
64	0	0	2033
65	0	0	2102
66	0	0	2049
67	0	0	2044
68	0	0	2029
69	0	0	2018
70	0	0	2023
71	0	0	2054
72	0	0	2060
73	0	0	2087
74	0	0	2102
75	0	0	2065
76	0	0	2086
77	0	0	2096
78	0	0	2012
79	0	0	2034
80	0	0	2085
81	0	0	2139
82	0	0	2088
83	0	0	2041
84	0	0	2006
85	0	0	1998
86	0	0	2013
87	0	0	2057
88	0	0	2076
89	0	0	2072
90	0	0	2096
91	0	0	2089
92	0	0	2077
93	0	0	2079
94	0	0	2091
95	0	0	2073
96	0	0	2049
97	0	0	2081
98	0	0	2067
99	0	0	2024
100	0	0	2016
101	0	0	2099
102	0	0	2089
103	0	0	2083
104	0	0	2014
105	0	0	2033
106	0	0	2036
107	0	0	2053
108	0	0	2102
109	0	0	2158
110	0	0	2173
111	0	0	2071
112	0	0	2053
113	0	0	2031
114	0	0	2005
115	0	0	2019
116	0	0	2058
117	0	0	1995
118	0	0	2035
119	0	0	2112
120	0	0	2083
121	0	0	2084
122	0	0	2146
123	0	0	2111
124	0	0	2005
125	0	0	1999
126	0	0	1976
127	0	0	2027
0	0	0	2125
1	0	0	2122
2	0	0	2096
3	0	0	2156
4	0	0	2144
5	0	0	2052
6	0	0	2011
7	0	0	2025
8	0	0	2064
9	0	0	2076
10	0	0	2048
11	0	0	2076
12	0	0	2136
13	0	0	2113
14	0	0	2087
15	0	0	2000
16	0	0	1967
17	0	0	1987
18	0	0	2021
19	0	0	1980
20	0	0	2097
21	0	0	2104
22	0	0	2139
23	0	0	2141
24	0	0	2094
25	0	0	2044
26	0	0	2048
27	0	0	1999
28	0	0	1987
29	0	0	2043
30	0	0	2104
31	0	0	2095
32	0	0	2029
33	0	0	2081
34	0	0	2122
35	0	0	2015
36	0	0	2014
37	0	0	2004
38	0	0	2063
39	0	0	2112
40	0	0	2114
41	0	0	2111
42	0	0	2073
43	0	0	2070
44	0	0	2029
45	0	0	2044
46	0	0	2036
47	0	0	2091
48	0	0	2011
49	0	0	2068
50	0	0	2054
51	0	0	2036
52	0	0	2070
53	0	0	2107
54	0	0	2078
55	0	0	2033
56	0	0	2100
57	0	0	2060
58	0	0	2076
59	0	0	2068
60	0	0	2119
61	0	0	2073
62	0	0	2053
63	0	0	2088
64	0	0	2090
65	0	0	2032
66	0	0	2016
67	0	0	2081
68	0	0	2107
69	0	0	2054
70	0	0	2042
71	0	0	2016
72	0	0	2032
73	0	0	2042
74	0	0	2051
75	0	0	2082
76	0	0	2131
77	0	0	2102
78	0	0	1984
79	0	0	1983
80	0	0	2064
81	0	0	2081
82	0	0	2072
83	0	0	2164
84	0	0	2200
85	0	0	2100
86	0	0	2145
87	0	0	2141
88	0	0	2100
89	0	0	1935
90	0	0	1909
91	0	0	1965
92	0	0	2044
93	0	0	2075
94	0	0	2079
95	0	0	2068
96	0	0	2090
97	0	0	2039
98	0	0	2040
99	0	0	2055
100	0	0	2070
101	0	0	2060
102	0	0	2049
103	0	0	2042
104	0	0	2068
105	0	0	2094
106	0	0	2130
107	0	0	2169
108	0	0	2090
109	0	0	2025
110	0	0	2043
111	0	0	2035
112	0	0	2011
113	0	0	2062
114	0	0	2070
115	0	0	1995
116	0	0	2084
117	0	0	2152
118	0	0	2198
119	0	0	2116
120	0	0	2044
121	0	0	2003
122	0	0	1996
123	0	0	2040
124	0	0	2021
125	0	0	2018
126	0	0	2046
127	0	0	2063
0	0	0	2093
1	0	0	2061
2	0	0	2050
3	0	0	2065
4	0	0	2054
5	0	0	2095
6	0	0	2091
7	0	0	2058
8	0	0	2001
9	0	0	2035
10	0	0	2067
11	0	0	2121
12	0	0	2193
13	0	0	2143
14	0	0	2089
15	0	0	2025
16	0	0	2085
17	0	0	2005
18	0	0	1983
19	0	0	1995
20	0	0	2034
21	0	0	2072
22	0	0	2116
23	0	0	2140
24	0	0	2095
25	0	0	2056
26	0	0	2068
27	0	0	2041
28	0	0	2079
29	0	0	2023
30	0	0	2073
31	0	0	2109
32	0	0	2026
33	0	0	2020
34	0	0	2057
35	0	0	2084
36	0	0	2080
37	0	0	2054
38	0	0	2050
39	0	0	2023
40	0	0	2015
41	0	0	2005
42	0	0	2058
43	0	0	2147
44	0	0	2168
45	0	0	2155
46	0	0	2114
47	0	0	2046
48	0	0	2003
49	0	0	2051
50	0	0	2105
51	0	0	2089
52	0	0	2056
53	0	0	2052
54	0	0	2034
55	0	0	2075
56	0	0	2058
57	0	0	2042
58	0	0	2042
59	0	0	2090
60	0	0	2054
61	0	0	2044
62	0	0	2069
63	0	0	2098
64	0	0	2094
65	0	0	2054
66	0	0	2071
67	0	0	2059
68	0	0	2102
69	0	0	2044
70	0	0	2050
71	0	0	2023
72	0	0	2009
73	0	0	2013
74	0	0	2056
75	0	0	2098
76	0	0	2207
77	0	0	2221
78	0	0	2064
79	0	0	2021
80	0	0	2006
81	0	0	2073
82	0	0	2130
83	0	0	2033
84	0	0	2097
85	0	0	2112
86	0	0	2039
87	0	0	2010
88	0	0	2019
89	0	0	2041
90	0	0	2051
91	0	0	2023
92	0	0	2062
93	0	0	2050
94	0	0	2021
95	0	0	2095
96	0	0	2128
97	0	0	2096
98	0	0	2098
99	0	0	2056
100	0	0	2057
101	0	0	2129
102	0	0	2081
103	0	0	2073
104	0	0	2049
105	0	0	2027
106	0	0	2066
107	0	0	2029
108	0	0	1988
109	0	0	2024
110	0	0	2050
111	0	0	2157
112	0	0	2185
113	0	0	2125
114	0	0	2079
115	0	0	2012
116	0	0	2074
117	0	0	2058
118	0	0	2034
119	0	0	2030
120	0	0	2068
121	0	0	2064
122	0	0	2033
123	0	0	2050
124	0	0	2030
125	0	0	2046
126	0	0	2073
127	0	0	2100
0	0	0	2081
1	0	0	2115
2	0	0	2048
3	0	0	2025
4	0	0	2090
5	0	0	2108
6	0	0	2078
7	0	0	2043
8	0	0	2065
9	0	0	2041
10	0	0	2063
11	0	0	2143
12	0	0	2108
13	0	0	2097
14	0	0	2006
15	0	0	2011
16	0	0	2028
17	0	0	2057
18	0	0	2059
19	0	0	2072
20	0	0	2094
21	0	0	2084
22	0	0	2077
23	0	0	2080
24	0	0	2017
25	0	0	2035
26	0	0	2054
27	0	0	2070
28	0	0	2110
29	0	0	2148
30	0	0	2065
31	0	0	2075
32	0	0	2040
33	0	0	2011
34	0	0	2011
35	0	0	2059
36	0	0	2113
37	0	0	2108
38	0	0	2091
39	0	0	2057
40	0	0	2025
41	0	0	2077
42	0	0	2140
43	0	0	2089
44	0	0	2062
45	0	0	1996
46	0	0	2025
47	0	0	2046
48	0	0	2085
49	0	0	2075
50	0	0	2097
51	0	0	2109
52	0	0	2024
53	0	0	2038
54	0	0	2075
55	0	0	2065
56	0	0	2044
57	0	0	2053
58	0	0	2062
59	0	0	2070
60	0	0	2056
61	0	0	2096
62	0	0	2085
63	0	0	2034
64	0	0	2044
65	0	0	2068
66	0	0	2074
67	0	0	2110
68	0	0	2157
69	0	0	2070
70	0	0	2007
71	0	0	2046
72	0	0	2055
73	0	0	2042
74	0	0	2054
75	0	0	2070
76	0	0	2088
77	0	0	2069
78	0	0	2074
79	0	0	2088
80	0	0	2054
81	0	0	2051
82	0	0	2058
83	0	0	2068
84	0	0	2068
85	0	0	2076
86	0	0	2054
87	0	0	2063
88	0	0	2071
89	0	0	2070
90	0	0	2058
91	0	0	2043
92	0	0	2053
93	0	0	2073
94	0	0	2057
95	0	0	2057
96	0	0	2082
97	0	0	2070
98	0	0	2061
99	0	0	2123
100	0	0	2128
101	0	0	2066
102	0	0	2079
103	0	0	2045
104	0	0	2048
105	0	0	2054
106	0	0	2032
107	0	0	2059
108	0	0	2076
109	0	0	2051
110	0	0	2059
111	0	0	2084
112	0	0	2096
113	0	0	2073
114	0	0	2070
115	0	0	2051
116	0	0	2051
117	0	0	2056
118	0	0	2041
119	0	0	2049
120	0	0	2059
121	0	0	2068
122	0	0	2103
123	0	0	2139
124	0	0	2109
125	0	0	2081
126	0	0	2035
127	0	0	2036
0	0	0	2049
1	0	0	2051
2	0	0	2061
3	0	0	2062
4	0	0	2063
5	0	0	2058
6	0	0	2066
7	0	0	2065
8	0	0	2068
9	0	0	2062
10	0	0	2052
11	0	0	2067
12	0	0	2072
13	0	0	2095
14	0	0	2073
15	0	0	2087
16	0	0	2074
17	0	0	2033
18	0	0	2068
19	0	0	2083
20	0	0	2091
21	0	0	2118
22	0	0	2063
23	0	0	2040
24	0	0	2046
25	0	0	2051
26	0	0	2087
27	0	0	2065
28	0	0	2075
29	0	0	2061
30	0	0	2056
31	0	0	2051
32	0	0	2056
33	0	0	2061
34	0	0	2072
35	0	0	2080
36	0	0	2064
37	0	0	2062
38	0	0	2064
39	0	0	2064
40	0	0	2069
41	0	0	2102
42	0	0	2085
43	0	0	2054
44	0	0	2054
45	0	0	2044
46	0	0	2054
47	0	0	2076
48	0	0	2074
49	0	0	2060
50	0	0	2060
51	0	0	2052
52	0	0	2069
53	0	0	2082
54	0	0	2073
55	0	0	2086
56	0	0	2067
57	0	0	2072
58	0	0	2060
59	0	0	2059
60	0	0	2051
61	0	0	2060
62	0	0	2080
63	0	0	2083
64	0	0	2075
65	0	0	2055
66	0	0	2053
67	0	0	2065
68	0	0	2063
69	0	0	2057
70	0	0	2058
71	0	0	2041
72	0	0	2054
73	0	0	2072
74	0	0	2090
75	0	0	2067
76	0	0	2069
77	0	0	2080
78	0	0	2074
79	0	0	2050
80	0	0	2114
81	0	0	2077
82	0	0	2063
83	0	0	2045
84	0	0	2076
85	0	0	2074
86	0	0	2061
87	0	0	2038
88	0	0	2046
89	0	0	2052
90	0	0	2059
91	0	0	2071
92	0	0	2061
93	0	0	2067
94	0	0	2050
95	0	0	2063
96	0	0	2063
97	0	0	2064
98	0	0	2061
99	0	0	2062
100	0	0	2086
101	0	0	2073
102	0	0	2073
103	0	0	2034
104	0	0	2055
105	0	0	2060
106	0	0	2079
107	0	0	2129
108	0	0	2108
109	0	0	2034
110	0	0	2042
111	0	0	2071
112	0	0	2072
113	0	0	2080
114	0	0	2063
115	0	0	2068
116	0	0	2048
117	0	0	2045
118	0	0	2054
119	0	0	2077
120	0	0	2073
121	0	0	2069
122	0	0	2077
123	0	0	2055
124	0	0	2055
125	0	0	2059
126	0	0	2065
127	0	0	2066
0	0	0	2067
1	0	0	2065
2	0	0	2051
3	0	0	2042
4	0	0	2054
5	0	0	2076
6	0	0	2075
7	0	0	2076
8	0	0	2080
9	0	0	2059
10	0	0	2050
11	0	0	2065
12	0	0	2078
13	0	0	2088
14	0	0	2067
15	0	0	2051
16	0	0	2055
17	0	0	2069
18	0	0	2078
19	0	0	2063
20	0	0	2067
21	0	0	2066
22	0	0	2076
23	0	0	2038
24	0	0	2045
25	0	0	2051
26	0	0	2074
27	0	0	2073
28	0	0	2050
29	0	0	2077
30	0	0	2084
31	0	0	2086
32	0	0	2099
33	0	0	2093
34	0	0	2076
35	0	0	2043
36	0	0	2039
37	0	0	2041
38	0	0	2044
39	0	0	2051
40	0	0	2058
41	0	0	2059
42	0	0	2060
43	0	0	2058
44	0	0	2064
45	0	0	2064
46	0	0	2070
47	0	0	2064
48	0	0	2057
49	0	0	2062
50	0	0	2061
51	0	0	2070
52	0	0	2067
53	0	0	2060
54	0	0	2070
55	0	0	2063
56	0	0	2060
57	0	0	2098
58	0	0	2085
59	0	0	2063
60	0	0	2036
61	0	0	2049
62	0	0	2045
63	0	0	2065
64	0	0	2094
65	0	0	2093
66	0	0	2084
67	0	0	2073
68	0	0	2069
69	0	0	2049
70	0	0	2032
71	0	0	2043
72	0	0	2057
73	0	0	2065
74	0	0	2078
75	0	0	2072
76	0	0	2078
77	0	0	2069
78	0	0	2060
79	0	0	2057
80	0	0	2059
81	0	0	2068
82	0	0	2077
83	0	0	2076
84	0	0	2066
85	0	0	2049
86	0	0	2059
87	0	0	2064
88	0	0	2066
89	0	0	2055
90	0	0	2055
91	0	0	2073
92	0	0	2084
93	0	0	2097
94	0	0	2065
95	0	0	2067
96	0	0	2052
97	0	0	2058
98	0	0	2040
99	0	0	2060
100	0	0	2065
101	0	0	2063
102	0	0	2094
103	0	0	2082
104	0	0	2063
105	0	0	2042
106	0	0	2067
107	0	0	2083
108	0	0	2094
109	0	0	2104
110	0	0	2078
111	0	0	2054
112	0	0	2046
113	0	0	2033
114	0	0	2035
115	0	0	2046
116	0	0	2058
117	0	0	2064
118	0	0	2066
119	0	0	2058
120	0	0	2064
121	0	0	2057
122	0	0	2061
123	0	0	2057
124	0	0	2060
125	0	0	2060
126	0	0	2071
127	0	0	2075
0	0	0	2079
1	0	0	2072
2	0	0	2096
3	0	0	2057
4	0	0	2052
5	0	0	2057
6	0	0	2065
7	0	0	2056
8	0	0	2071
9	0	0	2069
10	0	0	2070
11	0	0	2073
12	0	0	2060
13	0	0	2063
14	0	0	2056
15	0	0	2057
16	0	0	2071
17	0	0	2076
18	0	0	2075
19	0	0	2058
20	0	0	2059
21	0	0	2061
22	0	0	2067
23	0	0	2063
24	0	0	2074
25	0	0	2075
26	0	0	2078
27	0	0	2056
28	0	0	2046
29	0	0	2062
30	0	0	2066
31	0	0	2073
32	0	0	2072
33	0	0	2071
34	0	0	2071
35	0	0	2068
36	0	0	2067
37	0	0	2062
38	0	0	2063
39	0	0	2073
40	0	0	2065
41	0	0	2072
42	0	0	2075
43	0	0	2074
44	0	0	2069
45	0	0	2063
46	0	0	2053
47	0	0	2063
48	0	0	2067
49	0	0	2068
50	0	0	2065
51	0	0	2070
52	0	0	2070
53	0	0	2054
54	0	0	2072
55	0	0	2089
56	0	0	2057
57	0	0	2063
58	0	0	2081
59	0	0	2058
60	0	0	2061
61	0	0	2068
62	0	0	2063
63	0	0	2055
64	0	0	2063
65	0	0	2066
66	0	0	2072
67	0	0	2065
68	0	0	2071
69	0	0	2070
70	0	0	2066
71	0	0	2046
72	0	0	2059
73	0	0	2064
74	0	0	2078
75	0	0	2069
76	0	0	2064
77	0	0	2063
78	0	0	2059
79	0	0	2059
80	0	0	2058
81	0	0	2061
82	0	0	2075
83	0	0	2087
84	0	0	2095
85	0	0	2067
86	0	0	2054
87	0	0	2067
88	0	0	2050
89	0	0	2062
90	0	0	2050
91	0	0	2042
92	0	0	2043
93	0	0	2066
94	0	0	2082
95	0	0	2088
96	0	0	2083
97	0	0	2079
98	0	0	2082
99	0	0	2088
100	0	0	2048
101	0	0	2035
102	0	0	2048
103	0	0	2059
104	0	0	2066
105	0	0	2074
106	0	0	2093
107	0	0	2080
108	0	0	2057
109	0	0	2053
110	0	0	2068
111	0	0	2077
112	0	0	2058
113	0	0	2052
114	0	0	2065
115	0	0	2058
116	0	0	2056
117	0	0	2064
118	0	0	2056
119	0	0	2045
120	0	0	2068
121	0	0	2091
122	0	0	2090
123	0	0	2079
124	0	0	2071
125	0	0	2054
126	0	0	2052
127	0	0	2053
0	0	0	2053
1	0	0	2062
2	0	0	2058
3	0	0	2058
4	0	0	2067
5	0	0	2032
6	0	0	2051
7	0	0	2061
8	0	0	2044
9	0	0	2097
10	0	0	2111
11	0	0	2076
12	0	0	2090
13	0	0	2112
14	0	0	2094
15	0	0	2060
16	0	0	2056
17	0	0	2044
18	0	0	2030
19	0	0	2035
20	0	0	2051
21	0	0	2065
22	0	0	2076
23	0	0	2071
24	0	0	2055
25	0	0	2061
26	0	0	2067
27	0	0	2058
28	0	0	2067
29	0	0	2068
30	0	0	2062
31	0	0	2067
32	0	0	2042
33	0	0	2057
34	0	0	2069
35	0	0	2059
36	0	0	2053
37	0	0	2092
38	0	0	2069
39	0	0	2062
40	0	0	2089
41	0	0	2108
42	0	0	2104
43	0	0	2091
44	0	0	2053
45	0	0	2042
46	0	0	2035
47	0	0	2053
48	0	0	2061
49	0	0	2063
50	0	0	2058
51	0	0	2050
52	0	0	2060
53	0	0	2061
54	0	0	2065
55	0	0	2076
56	0	0	2065
57	0	0	2051
58	0	0	2049
59	0	0	2053
60	0	0	2069
61	0	0	2075
62	0	0	2083
63	0	0	2095
64	0	0	2083
65	0	0	2086
66	0	0	2076
67	0	0	2060
68	0	0	2068
69	0	0	2045
70	0	0	2037
71	0	0	2032
72	0	0	2025
73	0	0	2051
74	0	0	2079
75	0	0	2105
76	0	0	2145
77	0	0	2124
78	0	0	2103
79	0	0	2060
80	0	0	2068
81	0	0	2029
82	0	0	2011
83	0	0	2043
84	0	0	2046
85	0	0	2061
86	0	0	2069
87	0	0	2077
88	0	0	2077
89	0	0	2078
90	0	0	2078
91	0	0	2072
92	0	0	2058
93	0	0	2061
94	0	0	2078
95	0	0	2055
96	0	0	2064
97	0	0	2054
98	0	0	2053
99	0	0	2060
100	0	0	2068
101	0	0	2056
102	0	0	2072
103	0	0	2056
104	0	0	2052
105	0	0	2030
106	0	0	2084
107	0	0	2096
108	0	0	2100
109	0	0	2086
110	0	0	2052
111	0	0	2048
112	0	0	2060
113	0	0	2048
114	0	0	2036
115	0	0	2071
116	0	0	2092
117	0	0	2090
118	0	0	2072
119	0	0	2085
120	0	0	2089
121	0	0	2069
122	0	0	2044
123	0	0	2028
124	0	0	2062
125	0	0	2088
126	0	0	2058
127	0	0	2031
0	0	0	2063
1	0	0	2076
2	0	0	2071
3	0	0	2056
4	0	0	2048
5	0	0	2053
6	0	0	2049
7	0	0	2069
8	0	0	2075
9	0	0	2067
10	0	0	2121
11	0	0	2142
12	0	0	2083
13	0	0	2028
14	0	0	2026
15	0	0	2039
16	0	0	2046
17	0	0	2053
18	0	0	2076
19	0	0	2089
20	0	0	2096
21	0	0	2109
22	0	0	2062
23	0	0	2050
24	0	0	2053
25	0	0	2049
26	0	0	2060
27	0	0	2059
28	0	0	2063
29	0	0	2070
30	0	0	2055
31	0	0	2064
32	0	0	2060
33	0	0	2043
34	0	0	2063
35	0	0	2069
36	0	0	2071
37	0	0	2049
38	0	0	2065
39	0	0	2111
40	0	0	2121
41	0	0	2066
42	0	0	2076
43	0	0	2071
44	0	0	2058
45	0	0	2052
46	0	0	2044
47	0	0	2071
48	0	0	2043
49	0	0	2027
50	0	0	2095
51	0	0	2082
52	0	0	2079
53	0	0	2058
54	0	0	2062
55	0	0	2065
56	0	0	2066
57	0	0	2070
58	0	0	2067
59	0	0	2049
60	0	0	2055
61	0	0	2060
62	0	0	2048
63	0	0	2070
64	0	0	2063
65	0	0	2058
66	0	0	2043
67	0	0	2067
68	0	0	2071
69	0	0	2095
70	0	0	2089
71	0	0	2088
72	0	0	2086
73	0	0	2072
74	0	0	2067
75	0	0	2055
76	0	0	2069
77	0	0	2057
78	0	0	2031
79	0	0	2053
80	0	0	2076
81	0	0	2073
82	0	0	2062
83	0	0	2070
84	0	0	2065
85	0	0	2062
86	0	0	2067
87	0	0	2074
88	0	0	2051
89	0	0	2046
90	0	0	2056
91	0	0	2064
92	0	0	2078
93	0	0	2077
94	0	0	2089
95	0	0	2062
96	0	0	2046
97	0	0	2061
98	0	0	2080
99	0	0	2048
100	0	0	2056
101	0	0	2057
102	0	0	2063
103	0	0	2084
104	0	0	2111
105	0	0	2090
106	0	0	2054
107	0	0	2061
108	0	0	2070
109	0	0	2063
110	0	0	2059
111	0	0	2042
112	0	0	2053
113	0	0	2065
114	0	0	2062
115	0	0	2064
116	0	0	2060
117	0	0	2061
118	0	0	2067
119	0	0	2066
120	0	0	2063
121	0	0	2051
122	0	0	2076
123	0	0	2075
124	0	0	2073
125	0	0	2067
126	0	0	2067
127	0	0	2057
0	0	0	2054
1	0	0	2090
2	0	0	2072
3	0	0	2059
4	0	0	2058
5	0	0	2058
6	0	0	2065
7	0	0	2052
8	0	0	2063
9	0	0	2079
10	0	0	2063
11	0	0	2068
12	0	0	2064
13	0	0	2060
14	0	0	2069
15	0	0	2069
16	0	0	2063
17	0	0	2057
18	0	0	2075
19	0	0	2070
20	0	0	2062
21	0	0	2062
22	0	0	2063
23	0	0	2062
24	0	0	2065
25	0	0	2069
26	0	0	2060
27	0	0	2064
28	0	0	2061
29	0	0	2063
30	0	0	2078
31	0	0	2073
32	0	0	2077
33	0	0	2067
34	0	0	2063
35	0	0	2071
36	0	0	2065
37	0	0	2038
38	0	0	2041
39	0	0	2048
40	0	0	2066
41	0	0	2089
42	0	0	2077
43	0	0	2082
44	0	0	2090
45	0	0	2087
46	0	0	2072
47	0	0	2066
48	0	0	2063
49	0	0	2051
50	0	0	2040
51	0	0	2039
52	0	0	2039
53	0	0	2045
54	0	0	2075
55	0	0	2059
56	0	0	2055
57	0	0	2082
58	0	0	2084
59	0	0	2046
60	0	0	2068
61	0	0	2095
62	0	0	2061
63	0	0	2065
64	0	0	2111
65	0	0	2133
66	0	0	2056
67	0	0	2037
68	0	0	2025
69	0	0	2008
70	0	0	2016
71	0	0	2026
72	0	0	2035
73	0	0	2092
74	0	0	2093
75	0	0	2105
76	0	0	2110
77	0	0	2152
78	0	0	2138
79	0	0	2074
80	0	0	2080
81	0	0	2063
82	0	0	2014
83	0	0	1991
84	0	0	1997
85	0	0	2016
86	0	0	2022
87	0	0	2030
88	0	0	2073
89	0	0	2126
90	0	0	2099
91	0	0	2113
92	0	0	2119
93	0	0	2083
94	0	0	2083
95	0	0	2029
96	0	0	1993
97	0	0	2011
98	0	0	2030
99	0	0	2048
100	0	0	2048
101	0	0	2054
102	0	0	2074
103	0	0	2096
104	0	0	2107
105	0	0	2101
106	0	0	2103
107	0	0	2050
108	0	0	1969
109	0	0	2044
110	0	0	2136
111	0	0	2088
112	0	0	2026
113	0	0	1973
114	0	0	2030
115	0	0	2096
116	0	0	2114
117	0	0	2091
118	0	0	2087
119	0	0	2123
120	0	0	2145
121	0	0	2124
122	0	0	2029
123	0	0	2085
124	0	0	2053
125	0	0	2072
126	0	0	2068
127	0	0	2068
0	0	0	2068
1	0	0	2000
2	0	0	1977
3	0	0	2001
4	0	0	2055
5	0	0	2054
6	0	0	2009
7	0	0	2005
8	0	0	2015
9	0	0	2066
10	0	0	2050
11	0	0	2082
12	0	0	2197
13	0	0	2198
14	0	0	2179
15	0	0	2164
16	0	0	2092
17	0	0	1988
18	0	0	1994
19	0	0	2011
20	0	0	2006
21	0	0	2035
22	0	0	2015
23	0	0	2010
24	0	0	2030
25	0	0	2002
26	0	0	2048
27	0	0	2129
28	0	0	2146
29	0	0	2139
30	0	0	2143
31	0	0	2157
32	0	0	2157
33	0	0	2049
34	0	0	1982
35	0	0	1996
36	0	0	2026
37	0	0	2049
38	0	0	1999
39	0	0	1894
40	0	0	2006
41	0	0	2160
42	0	0	2184
43	0	0	2214
44	0	0	2216
45	0	0	2146
46	0	0	2076
47	0	0	1941
48	0	0	1939
49	0	0	2020
50	0	0	2095
51	0	0	2171
52	0	0	2126
53	0	0	2001
54	0	0	1910
55	0	0	1934
56	0	0	2008
57	0	0	2048
58	0	0	2121
59	0	0	2216
60	0	0	2297
61	0	0	2083
62	0	0	1995
63	0	0	2048
64	0	0	2040
65	0	0	1994
66	0	0	1988
67	0	0	2055
68	0	0	2032
69	0	0	2000
70	0	0	2094
71	0	0	2107
72	0	0	2157
73	0	0	2154
74	0	0	2101
75	0	0	2094
76	0	0	2020
77	0	0	2055
78	0	0	2012
79	0	0	2000
80	0	0	1977
81	0	0	2040
82	0	0	2075
83	0	0	2087
84	0	0	2058
85	0	0	2097
86	0	0	2123
87	0	0	2086
88	0	0	2088
89	0	0	2072
90	0	0	2042
91	0	0	2042
92	0	0	2061
93	0	0	2073
94	0	0	2030
95	0	0	2004
96	0	0	2054
97	0	0	2070
98	0	0	2084
99	0	0	2106
100	0	0	2131
101	0	0	2117
102	0	0	2044
103	0	0	2038
104	0	0	2088
105	0	0	2071
106	0	0	1992
107	0	0	2027
108	0	0	2045
109	0	0	2095
110	0	0	2156
111	0	0	2092
112	0	0	2051
113	0	0	1990
114	0	0	1996
115	0	0	2030
116	0	0	2051
117	0	0	2113
118	0	0	2149
119	0	0	2138
120	0	0	2066
121	0	0	2097
122	0	0	2057
123	0	0	2009
124	0	0	2016
125	0	0	2056
126	0	0	2036
127	0	0	2029
0	0	0	2051
1	0	0	2074
2	0	0	2063
3	0	0	2080
4	0	0	2091
5	0	0	2043
6	0	0	1989
7	0	0	2030
8	0	0	2093
9	0	0	2160
10	0	0	2165
11	0	0	2121
12	0	0	2039
13	0	0	2013
14	0	0	2071
15	0	0	2091
16	0	0	2048
17	0	0	2031
18	0	0	2028
19	0	0	2032
20	0	0	2045
21	0	0	2062
22	0	0	2114
23	0	0	2096
24	0	0	2038
25	0	0	2050
26	0	0	2055
27	0	0	2044
28	0	0	2092
29	0	0	2060
30	0	0	1998
31	0	0	2052
32	0	0	2071
33	0	0	2127
34	0	0	2169
35	0	0	2084
36	0	0	2044
37	0	0	2057
38	0	0	2007
39	0	0	2019
40	0	0	2056
41	0	0	2080
42	0	0	2042
43	0	0	2070
44	0	0	2080
45	0	0	2082
46	0	0	2103
47	0	0	2109
48	0	0	2110
49	0	0	2117
50	0	0	2063
51	0	0	2038
52	0	0	2089
53	0	0	2062
54	0	0	1997
55	0	0	1997
56	0	0	2085
57	0	0	2057
58	0	0	2069
59	0	0	2085
60	0	0	2004
61	0	0	2018
62	0	0	2055
63	0	0	2099
64	0	0	2139
65	0	0	2122
66	0	0	2123
67	0	0	2052
68	0	0	2032
69	0	0	2017
70	0	0	2019
71	0	0	2046
72	0	0	2091
73	0	0	2078
74	0	0	2085
75	0	0	2030
76	0	0	1992
77	0	0	2061
78	0	0	2083
79	0	0	2118
80	0	0	2146
81	0	0	2086
82	0	0	2010
83	0	0	2040
84	0	0	2093
85	0	0	2115
86	0	0	2058
87	0	0	2044
88	0	0	2053
89	0	0	2036
90	0	0	2061
91	0	0	2064
92	0	0	2077
93	0	0	2038
94	0	0	2059
95	0	0	2062
96	0	0	2085
97	0	0	2080
98	0	0	2070
99	0	0	2051
100	0	0	2071
101	0	0	2071
102	0	0	2064
103	0	0	2075
104	0	0	2066
105	0	0	2045
106	0	0	2054
107	0	0	2060
108	0	0	2075
109	0	0	2104
110	0	0	2075
111	0	0	2046
112	0	0	2064
113	0	0	2076
114	0	0	2077
115	0	0	2084
116	0	0	2077
117	0	0	2091
118	0	0	2081
119	0	0	2065
120	0	0	2077
121	0	0	2079
122	0	0	2035
123	0	0	2040
124	0	0	2009
125	0	0	2023
126	0	0	2060
127	0	0	2101
0	0	0	2101
1	0	0	2106
2	0	0	2107
3	0	0	2103
4	0	0	2101
5	0	0	2067
6	0	0	1994
7	0	0	2033
8	0	0	2056
9	0	0	2054
10	0	0	2041
11	0	0	2042
12	0	0	2041
13	0	0	2068
14	0	0	2065
15	0	0	2084
16	0	0	2104
17	0	0	2088
18	0	0	2044
19	0	0	2075
20	0	0	2088
21	0	0	2095
22	0	0	2085
23	0	0	2069
24	0	0	2049
25	0	0	2039
26	0	0	2072
27	0	0	2071
28	0	0	2072
29	0	0	2041
30	0	0	2040
31	0	0	2058
32	0	0	2062
33	0	0	2066
34	0	0	2050
35	0	0	2071
36	0	0	2071
37	0	0	2077
38	0	0	2080
39	0	0	2042
40	0	0	2046
41	0	0	2098
42	0	0	2097
43	0	0	2090
44	0	0	2102
45	0	0	2083
46	0	0	2070
47	0	0	2025
48	0	0	2019
49	0	0	2046
50	0	0	2057
51	0	0	2041
52	0	0	2045
53	0	0	2079
54	0	0	2122
55	0	0	2097
56	0	0	2100
57	0	0	2052
58	0	0	2046
59	0	0	2068
60	0	0	2041
61	0	0	2050
62	0	0	2053
63	0	0	2058
64	0	0	2077
65	0	0	2075
66	0	0	2062
67	0	0	2057
68	0	0	2051
69	0	0	2037
70	0	0	2068
71	0	0	2090
72	0	0	2070
73	0	0	2086
74	0	0	2097
75	0	0	2050
76	0	0	2020
77	0	0	2057
78	0	0	2088
79	0	0	2096
80	0	0	2093
81	0	0	2062
82	0	0	2074
83	0	0	2060
84	0	0	2048
85	0	0	2058
86	0	0	2068
87	0	0	2048
88	0	0	2044
89	0	0	2063
90	0	0	2050
91	0	0	2048
92	0	0	2079
93	0	0	2102
94	0	0	2099
95	0	0	2073
96	0	0	2075
97	0	0	2076
98	0	0	2049
99	0	0	2062
100	0	0	2058
101	0	0	2046
102	0	0	2043
103	0	0	2058
104	0	0	2051
105	0	0	2059
106	0	0	2084
107	0	0	2085
108	0	0	2066
109	0	0	2099
110	0	0	2074
111	0	0	2056
112	0	0	2049
113	0	0	2066
114	0	0	2067
115	0	0	2064
116	0	0	2054
117	0	0	2055
118	0	0	2035
119	0	0	2044
120	0	0	2080
121	0	0	2101
122	0	0	2089
123	0	0	2092
124	0	0	2060
125	0	0	2044
126	0	0	2062
127	0	0	2036
0	0	0	2044
1	0	0	2048
2	0	0	2060
3	0	0	2107
4	0	0	2161
5	0	0	2183
6	0	0	2084
7	0	0	2016
8	0	0	2016
9	0	0	2044
10	0	0	2030
11	0	0	2040
12	0	0	2053
13	0	0	2046
14	0	0	2043
15	0	0	2069
16	0	0	2066
17	0	0	2077
18	0	0	2081
19	0	0	2094
20	0	0	2095
21	0	0	2038
22	0	0	2046
23	0	0	2063
24	0	0	2067
25	0	0	2065
26	0	0	2059
27	0	0	2060
28	0	0	2057
29	0	0	2059
30	0	0	2065
31	0	0	2065
32	0	0	2083
33	0	0	2072
34	0	0	2084
35	0	0	2069
36	0	0	2064
37	0	0	2063
38	0	0	2072
39	0	0	2054
40	0	0	2065
41	0	0	2065
42	0	0	2078
43	0	0	2083
44	0	0	2090
45	0	0	2070
46	0	0	2038
47	0	0	2035
48	0	0	2052
49	0	0	2084
50	0	0	2091
51	0	0	2084
52	0	0	2072
53	0	0	2045
54	0	0	2049
55	0	0	2057
56	0	0	2060
57	0	0	2082
58	0	0	2055
59	0	0	2055
60	0	0	2055
61	0	0	2061
62	0	0	2064
63	0	0	2070
64	0	0	2080
65	0	0	2076
66	0	0	2073
67	0	0	2079
68	0	0	2061
69	0	0	2056
70	0	0	2049
71	0	0	2056
72	0	0	2071
73	0	0	2089
74	0	0	2078
75	0	0	2073
76	0	0	2083
77	0	0	2075
78	0	0	2060
79	0	0	2064
80	0	0	2057
81	0	0	2063
82	0	0	2078
83	0	0	2060
84	0	0	2060
85	0	0	2057
86	0	0	2054
87	0	0	2059
88	0	0	2056
89	0	0	2043
90	0	0	2053
91	0	0	2082
92	0	0	2096
93	0	0	2129
94	0	0	2133
95	0	0	2075
96	0	0	2019
97	0	0	2032
98	0	0	2066
99	0	0	2086
100	0	0	2050
101	0	0	2035
102	0	0	2041
103	0	0	2055
104	0	0	2076
105	0	0	2070
106	0	0	2053
107	0	0	2053
108	0	0	2070
109	0	0	2061
110	0	0	2062
111	0	0	2044
112	0	0	2070
113	0	0	2092
114	0	0	2125
115	0	0	2072
116	0	0	2058
117	0	0	2069
118	0	0	2069
119	0	0	2070
120	0	0	2089
121	0	0	2071
122	0	0	2043
123	0	0	2042
124	0	0	2067
125	0	0	2077
126	0	0	2080
127	0	0	2057
0	0	0	2049
1	0	0	2049
2	0	0	2049
3	0	0	2053
4	0	0	2058
5	0	0	2067
6	0	0	2076
7	0	0	2055
8	0	0	2069
9	0	0	2068
10	0	0	2056
11	0	0	2075
12	0	0	2064
13	0	0	2080
14	0	0	2068
15	0	0	2079
16	0	0	2073
17	0	0	2077
18	0	0	2036
19	0	0	2058
20	0	0	2090
21	0	0	2076
22	0	0	2057
23	0	0	2068
24	0	0	2089
25	0	0	2049
26	0	0	2041
27	0	0	2065
28	0	0	2059
29	0	0	2058
30	0	0	2069
31	0	0	2086
32	0	0	2073
33	0	0	2056
34	0	0	2054
35	0	0	2054
36	0	0	2059
37	0	0	2061
38	0	0	2058
39	0	0	2064
40	0	0	2081
41	0	0	2079
42	0	0	2080
43	0	0	2066
44	0	0	2050
45	0	0	2063
46	0	0	2056
47	0	0	2059
48	0	0	2071
49	0	0	2067
50	0	0	2062
51	0	0	2069
52	0	0	2071
53	0	0	2063
54	0	0	2058
55	0	0	2060
56	0	0	2069
57	0	0	2080
58	0	0	2084
59	0	0	2106
60	0	0	2074
61	0	0	2062
62	0	0	2070
63	0	0	2073
64	0	0	2059
65	0	0	2061
66	0	0	2063
67	0	0	2049
68	0	0	2062
69	0	0	2065
70	0	0	2054
71	0	0	2040
72	0	0	2055
73	0	0	2062
74	0	0	2060
75	0	0	2056
76	0	0	2057
77	0	0	2061
78	0	0	2088
79	0	0	2098
80	0	0	2113
81	0	0	2083
82	0	0	2068
83	0	0	2036
84	0	0	2039
85	0	0	2033
86	0	0	2038
87	0	0	2050
88	0	0	2055
89	0	0	2092
90	0	0	2110
91	0	0	2098
92	0	0	2123
93	0	0	2120
94	0	0	2067
95	0	0	2049
96	0	0	2027
97	0	0	2029
98	0	0	2031
99	0	0	2040
100	0	0	2058
101	0	0	2056
102	0	0	2051
103	0	0	2058
104	0	0	2073
105	0	0	2074
106	0	0	2079
107	0	0	2090
108	0	0	2076
109	0	0	2070
110	0	0	2060
111	0	0	2056
112	0	0	2046
113	0	0	2044
114	0	0	2048
115	0	0	2069
116	0	0	2068
117	0	0	2077
118	0	0	2076
119	0	0	2090
120	0	0	2090
121	0	0	2078
122	0	0	2072
123	0	0	2061
124	0	0	2049
125	0	0	2059
126	0	0	2050
127	0	0	2058
0	0	0	2067
1	0	0	2089
2	0	0	2067
3	0	0	2038
4	0	0	2060
5	0	0	2065
6	0	0	2057
7	0	0	2061
8	0	0	2081
9	0	0	2094
10	0	0	2100
11	0	0	2072
12	0	0	2057
13	0	0	2054
14	0	0	2055
15	0	0	2052
16	0	0	2051
17	0	0	2068
18	0	0	2069
19	0	0	2066
20	0	0	2067
21	0	0	2050
22	0	0	2048
23	0	0	2049
24	0	0	2064
25	0	0	2090
26	0	0	2108
27	0	0	2088
28	0	0	2086
29	0	0	2098
30	0	0	2056
31	0	0	2037
32	0	0	2041
33	0	0	2053
34	0	0	2081
35	0	0	2048
36	0	0	2052
37	0	0	2068
38	0	0	2070
39	0	0	2065
40	0	0	2063
41	0	0	2061
42	0	0	2050
43	0	0	2054
44	0	0	2082
45	0	0	2074
46	0	0	2075
47	0	0	2078
48	0	0	2074
49	0	0	2061
50	0	0	2061
51	0	0	2066
52	0	0	2070
53	0	0	2074
54	0	0	2057
55	0	0	2056
56	0	0	2069
57	0	0	2058
58	0	0	2041
59	0	0	2046
60	0	0	2057
61	0	0	2067
62	0	0	2067
63	0	0	2075
64	0	0	2096
65	0	0	2085
66	0	0	2057
67	0	0	2055
68	0	0	2066
69	0	0	2070
70	0	0	2051
71	0	0	2049
72	0	0	2057
73	0	0	2062
74	0	0	2064
75	0	0	2052
76	0	0	2064
77	0	0	2086
78	0	0	2098
79	0	0	2078
80	0	0	2076
81	0	0	2092
82	0	0	2072
83	0	0	2046
84	0	0	2040
85	0	0	2070
86	0	0	2063
87	0	0	2062
88	0	0	2052
89	0	0	2056
90	0	0	2051
91	0	0	2065
92	0	0	2058
93	0	0	2070
94	0	0	2075
95	0	0	2077
96	0	0	2062
97	0	0	2044
98	0	0	2048
99	0	0	2049
100	0	0	2078
101	0	0	2075
102	0	0	2069
103	0	0	2076
104	0	0	2070
105	0	0	2058
106	0	0	2061
107	0	0	2078
108	0	0	2087
109	0	0	2079
110	0	0	2073
111	0	0	2063
112	0	0	2058
113	0	0	2061
114	0	0	2064
115	0	0	2060
116	0	0	2065
117	0	0	2063
118	0	0	2055
119	0	0	2060
120	0	0	2061
121	0	0	2061
122	0	0	2069
123	0	0	2056
124	0	0	2065
125	0	0	2062
126	0	0	2077
127	0	0	2086
0	0	0	2069
1	0	0	2070
2	0	0	2067
3	0	0	2075
4	0	0	2070
5	0	0	2044
6	0	0	2026
7	0	0	2037
8	0	0	2062
9	0	0	2085
10	0	0	2101
11	0	0	2108
12	0	0	2099
13	0	0	2094
14	0	0	2089
15	0	0	2056
16	0	0	2029
17	0	0	2041
18	0	0	2045
19	0	0	2042
20	0	0	2067
21	0	0	2060
22	0	0	2046
23	0	0	2060
24	0	0	2077
25	0	0	2071
26	0	0	2070
27	0	0	2052
28	0	0	2055
29	0	0	2064
30	0	0	2079
31	0	0	2056
32	0	0	2066
33	0	0	2067
34	0	0	2065
35	0	0	2070
36	0	0	2033
37	0	0	2066
38	0	0	2071
39	0	0	2077
40	0	0	2065
41	0	0	2075
42	0	0	2124
43	0	0	2124
44	0	0	2063
45	0	0	2025
46	0	0	2030
47	0	0	2038
48	0	0	2066
49	0	0	2061
50	0	0	2056
51	0	0	2063
52	0	0	2063
53	0	0	2073
54	0	0	2062
55	0	0	2055
56	0	0	2037
57	0	0	2046
58	0	0	2069
59	0	0	2087
60	0	0	2099
61	0	0	2111
62	0	0	2098
63	0	0	2069
64	0	0	2077
65	0	0	2068
66	0	0	2046
67	0	0	2049
68	0	0	2052
69	0	0	2058
70	0	0	2074
71	0	0	2068
72	0	0	2052
73	0	0	2052
74	0	0	2060
75	0	0	2065
76	0	0	2081
77	0	0	2048
78	0	0	2059
79	0	0	2057
80	0	0	2069
81	0	0	2063
82	0	0	2069
83	0	0	2082
84	0	0	2072
85	0	0	2070
86	0	0	2057
87	0	0	2072
88	0	0	2077
89	0	0	2056
90	0	0	2067
91	0	0	2072
92	0	0	2070
93	0	0	2055
94	0	0	2051
95	0	0	2066
96	0	0	2067
97	0	0	2072
98	0	0	2065
99	0	0	2076
100	0	0	2070
101	0	0	2063
102	0	0	2067
103	0	0	2057
104	0	0	2056
105	0	0	2046
106	0	0	2071
107	0	0	2093
108	0	0	2101
109	0	0	2069
110	0	0	2041
111	0	0	2065
112	0	0	2061
113	0	0	2061
114	0	0	2048
115	0	0	2058
116	0	0	2066
117	0	0	2079
118	0	0	2100
119	0	0	2070
120	0	0	2049
121	0	0	2041
122	0	0	2059
123	0	0	2070
124	0	0	2073
125	0	0	2058
126	0	0	2069
127	0	0	2084
0	0	0	2081
1	0	0	2050
2	0	0	2067
3	0	0	2072
4	0	0	2066
5	0	0	2054
6	0	0	2040
7	0	0	2050
8	0	0	2064
9	0	0	2069
10	0	0	2101
11	0	0	2082
12	0	0	2059
13	0	0	2070
14	0	0	2075
15	0	0	2054
16	0	0	2057
17	0	0	2053
18	0	0	2059
19	0	0	2055
20	0	0	2075
21	0	0	2061
22	0	0	2052
23	0	0	2052
24	0	0	2066
25	0	0	2067
26	0	0	2076
27	0	0	2077
28	0	0	2063
29	0	0	2066
30	0	0	2076
31	0	0	2060
32	0	0	2061
33	0	0	2105
34	0	0	2089
35	0	0	2086
36	0	0	2078
37	0	0	2070
38	0	0	2032
39	0	0	2038
40	0	0	2039
41	0	0	2062
42	0	0	2078
43	0	0	2064
44	0	0	2069
45	0	0	2074
46	0	0	2062
47	0	0	2054
48	0	0	2063
49	0	0	2063
50	0	0	2074
51	0	0	2072
52	0	0	2065
53	0	0	2054
54	0	0	2043
55	0	0	2050
56	0	0	2088
57	0	0	2080
58	0	0	2122
59	0	0	2077
60	0	0	2060
61	0	0	2057
62	0	0	2062
63	0	0	2062
64	0	0	2058
65	0	0	2072
66	0	0	2029
67	0	0	2029
68	0	0	2044
69	0	0	2079
70	0	0	2071
71	0	0	2075
72	0	0	2099
73	0	0	2095
74	0	0	2100
75	0	0	2109
76	0	0	2063
77	0	0	2018
78	0	0	2017
79	0	0	2045
80	0	0	2081
81	0	0	2073
82	0	0	2060
83	0	0	2078
84	0	0	2086
85	0	0	2078
86	0	0	2070
87	0	0	2076
88	0	0	2050
89	0	0	2029
90	0	0	2060
91	0	0	2054
92	0	0	2061
93	0	0	2083
94	0	0	2052
95	0	0	2043
96	0	0	2028
97	0	0	2034
98	0	0	2050
99	0	0	2088
100	0	0	2145
101	0	0	2123
102	0	0	2110
103	0	0	2050
104	0	0	2046
105	0	0	2058
106	0	0	2050
107	0	0	2053
108	0	0	2047
109	0	0	2042
110	0	0	2058
111	0	0	2062
112	0	0	2062
113	0	0	2058
114	0	0	2054
115	0	0	2076
116	0	0	2092
117	0	0	2091
118	0	0	2064
119	0	0	2054
120	0	0	2041
121	0	0	2065
122	0	0	2083
123	0	0	2063
124	0	0	2059
125	0	0	2045
126	0	0	2080
127	0	0	2062
0	0	0	2075
1	0	0	2065
2	0	0	2082
3	0	0	2071
4	0	0	2053
5	0	0	2035
6	0	0	2080
7	0	0	2068
8	0	0	2083
9	0	0	2089
10	0	0	2079
11	0	0	2061
12	0	0	2069
13	0	0	2082
14	0	0	2040
15	0	0	2035
16	0	0	2042
17	0	0	2048
18	0	0	2060
19	0	0	2059
20	0	0	2087
21	0	0	2127
22	0	0	2149
23	0	0	2054
24	0	0	1986
25	0	0	2014
26	0	0	2052
27	0	0	2046
28	0	0	2044
29	0	0	2102
30	0	0	2129
31	0	0	2113
32	0	0	2055
33	0	0	2071
34	0	0	2123
35	0	0	2096
36	0	0	2022
37	0	0	2028
38	0	0	2034
39	0	0	2051
40	0	0	2065
41	0	0	2073
42	0	0	2075
43	0	0	2045
44	0	0	2030
45	0	0	2034
46	0	0	2071
47	0	0	2097
48	0	0	2087
49	0	0	2087
50	0	0	2063
51	0	0	2035
52	0	0	2025
53	0	0	2045
54	0	0	2097
55	0	0	2128
56	0	0	2177
57	0	0	2126
58	0	0	2021
59	0	0	2013
60	0	0	2027
61	0	0	2052
62	0	0	2043
63	0	0	2065
64	0	0	2080
65	0	0	2060
66	0	0	2051
67	0	0	2063
68	0	0	2065
69	0	0	2062
70	0	0	2069
71	0	0	2061
72	0	0	2072
73	0	0	2077
74	0	0	2072
75	0	0	2059
76	0	0	2065
77	0	0	2067
78	0	0	2043
79	0	0	2058
80	0	0	2072
81	0	0	2086
82	0	0	2061
83	0	0	2050
84	0	0	2084
85	0	0	2070
86	0	0	2073
87	0	0	2065
88	0	0	2063
89	0	0	2072
90	0	0	2063
91	0	0	2050
92	0	0	2044
93	0	0	2040
94	0	0	2078
95	0	0	2095
96	0	0	2103
97	0	0	2089
98	0	0	2068
99	0	0	2036
100	0	0	2070
101	0	0	2105
102	0	0	2104
103	0	0	2057
104	0	0	2038
105	0	0	2038
106	0	0	2048
107	0	0	2046
108	0	0	2055
109	0	0	2059
110	0	0	2050
111	0	0	2056
112	0	0	2043
113	0	0	2050
114	0	0	2052
115	0	0	2072
116	0	0	2061
117	0	0	2074
118	0	0	2097
119	0	0	2109
120	0	0	2128
121	0	0	2092
122	0	0	2133
123	0	0	2090
124	0	0	2018
125	0	0	2003
126	0	0	2038
127	0	0	2028
0	0	0	2026
1	0	0	2048
2	0	0	2054
3	0	0	2057
4	0	0	2058
5	0	0	2089
6	0	0	2116
7	0	0	2056
8	0	0	2056
9	0	0	2120
10	0	0	2115
11	0	0	2082
12	0	0	2025
13	0	0	2044
14	0	0	2059
15	0	0	2041
16	0	0	2064
17	0	0	2067
18	0	0	2060
19	0	0	2044
20	0	0	2070
21	0	0	2069
22	0	0	2053
23	0	0	2050
24	0	0	2066
25	0	0	2074
26	0	0	2090
27	0	0	2080
28	0	0	2054
29	0	0	2050
30	0	0	2069
31	0	0	2090
32	0	0	2081
33	0	0	2062
34	0	0	2057
35	0	0	2051
36	0	0	2054
37	0	0	2075
38	0	0	2064
39	0	0	2040
40	0	0	2052
41	0	0	2079
42	0	0	2069
43	0	0	2094
44	0	0	2093
45	0	0	2106
46	0	0	2064
47	0	0	2040
48	0	0	2062
49	0	0	2061
50	0	0	2087
51	0	0	2070
52	0	0	2076
53	0	0	2032
54	0	0	2058
55	0	0	2054
56	0	0	2055
57	0	0	2081
58	0	0	2085
59	0	0	2073
60	0	0	2050
61	0	0	2055
62	0	0	2059
63	0	0	2059
64	0	0	2094
65	0	0	2066
66	0	0	2026
67	0	0	2013
68	0	0	2015
69	0	0	2046
70	0	0	2072
71	0	0	2103
72	0	0	2166
73	0	0	2183
74	0	0	2126
75	0	0	2042
76	0	0	2019
77	0	0	2036
78	0	0	2040
79	0	0	2068
80	0	0	2030
81	0	0	2055
82	0	0	2063
83	0	0	2048
84	0	0	2041
85	0	0	2049
86	0	0	2061
87	0	0	2086
88	0	0	2079
89	0	0	2115
90	0	0	2109
91	0	0	2051
92	0	0	2024
93	0	0	2042
94	0	0	2076
95	0	0	2087
96	0	0	2089
97	0	0	2056
98	0	0	2037
99	0	0	2066
100	0	0	2082
101	0	0	2100
102	0	0	2050
103	0	0	2056
104	0	0	2040
105	0	0	2051
106	0	0	2069
107	0	0	2081
108	0	0	2061
109	0	0	2043
110	0	0	2066
111	0	0	2055
112	0	0	2067
113	0	0	2060
114	0	0	2093
115	0	0	2066
116	0	0	2068
117	0	0	2063
118	0	0	2064
119	0	0	2059
120	0	0	2058
121	0	0	2063
122	0	0	2074
123	0	0	2069
124	0	0	2065
125	0	0	2096
126	0	0	2074
127	0	0	2076
0	0	0	2121
1	0	0	2102
2	0	0	2048
3	0	0	2015
4	0	0	2033
5	0	0	2049
6	0	0	2090
7	0	0	2078
8	0	0	2069
9	0	0	2056
10	0	0	2036
11	0	0	2058
12	0	0	2077
13	0	0	2056
14	0	0	2068
15	0	0	2069
16	0	0	2057
17	0	0	2044
18	0	0	2054
19	0	0	2065
20	0	0	2074
21	0	0	2132
22	0	0	2088
23	0	0	2048
24	0	0	2038
25	0	0	2027
26	0	0	2080
27	0	0	2109
28	0	0	2115
29	0	0	2072
30	0	0	2075
31	0	0	2049
32	0	0	2049
33	0	0	2039
34	0	0	2059
35	0	0	2056
36	0	0	2062
37	0	0	2082
38	0	0	2069
39	0	0	2063
40	0	0	2075
41	0	0	2050
42	0	0	2049
43	0	0	2052
44	0	0	2042
45	0	0	2050
46	0	0	2062
47	0	0	2091
48	0	0	2104
49	0	0	2068
50	0	0	2067
51	0	0	2078
52	0	0	2059
53	0	0	2069
54	0	0	2092
55	0	0	2084
56	0	0	2087
57	0	0	2056
58	0	0	2012
59	0	0	2002
60	0	0	2020
61	0	0	2049
62	0	0	2048
63	0	0	2100
64	0	0	2193
65	0	0	2192
66	0	0	2087
67	0	0	2033
68	0	0	2039
69	0	0	2020
70	0	0	2041
71	0	0	2051
72	0	0	2044
73	0	0	2045
74	0	0	2054
75	0	0	2063
76	0	0	2075
77	0	0	2059
78	0	0	2054
79	0	0	2068
80	0	0	2049
81	0	0	2063
82	0	0	2091
83	0	0	2075
84	0	0	2050
85	0	0	2069
86	0	0	2086
87	0	0	2093
88	0	0	2060
89	0	0	2055
90	0	0	2069
91	0	0	2064
92	0	0	2080
93	0	0	2080
94	0	0	2053
95	0	0	2046
96	0	0	2053
97	0	0	2057
98	0	0	2054
99	0	0	2062
100	0	0	2082
101	0	0	2091
102	0	0	2069
103	0	0	2067
104	0	0	2081
105	0	0	2081
106	0	0	2065
107	0	0	2056
108	0	0	2056
109	0	0	2044
110	0	0	2057
111	0	0	2077
112	0	0	2071
113	0	0	2087
114	0	0	2079
115	0	0	2076
116	0	0	2061
117	0	0	2060
118	0	0	2060
119	0	0	2059
120	0	0	2053
121	0	0	2052
122	0	0	2068
123	0	0	2071
124	0	0	2067
125	0	0	2060
126	0	0	2056
127	0	0	2083
0	0	0	2077
1	0	0	2025
2	0	0	2020
3	0	0	2035
4	0	0	2052
5	0	0	2053
6	0	0	2108
7	0	0	2208
8	0	0	2152
9	0	0	2042
10	0	0	2005
11	0	0	2032
12	0	0	2053
13	0	0	2064
14	0	0	2058
15	0	0	2044
16	0	0	2057
17	0	0	2055
18	0	0	2056
19	0	0	2067
20	0	0	2051
21	0	0	2067
22	0	0	2071
23	0	0	2069
24	0	0	2073
25	0	0	2070
26	0	0	2064
27	0	0	2070
28	0	0	2083
29	0	0	2078
30	0	0	2073
31	0	0	2067
32	0	0	2065
33	0	0	2074
34	0	0	2056
35	0	0	2050
36	0	0	2042
37	0	0	2066
38	0	0	2056
39	0	0	2079
40	0	0	2083
41	0	0	2075
42	0	0	2069
43	0	0	2060
44	0	0	2060
45	0	0	2062
46	0	0	2070
47	0	0	2069
48	0	0	2065
49	0	0	2045
50	0	0	2059
51	0	0	2071
52	0	0	2069
53	0	0	2064
54	0	0	2073
55	0	0	2076
56	0	0	2085
57	0	0	2079
58	0	0	2074
59	0	0	2065
60	0	0	2062
61	0	0	2056
62	0	0	2057
63	0	0	2055
64	0	0	2060
65	0	0	2053
66	0	0	2060
67	0	0	2042
68	0	0	2044
69	0	0	2096
70	0	0	2067
71	0	0	2052
72	0	0	2080
73	0	0	2152
74	0	0	2096
75	0	0	2050
76	0	0	2044
77	0	0	2060
78	0	0	2063
79	0	0	2064
80	0	0	2066
81	0	0	2052
82	0	0	2052
83	0	0	2041
84	0	0	2048
85	0	0	2069
86	0	0	2053
87	0	0	2067
88	0	0	2068
89	0	0	2105
90	0	0	2083
91	0	0	2049
92	0	0	2038
93	0	0	2038
94	0	0	2053
95	0	0	2077
96	0	0	2083
97	0	0	2081
98	0	0	2091
99	0	0	2089
100	0	0	2096
101	0	0	2076
102	0	0	2051
103	0	0	2047
104	0	0	2050
105	0	0	2051
106	0	0	2059
107	0	0	2055
108	0	0	2068
109	0	0	2059
110	0	0	2051
111	0	0	2083
112	0	0	2048
113	0	0	2056
114	0	0	2066
115	0	0	2072
116	0	0	2073
117	0	0	2084
118	0	0	2072
119	0	0	2076
120	0	0	2060
121	0	0	2067
122	0	0	2061
123	0	0	2067
124	0	0	2066
125	0	0	2058
126	0	0	2069
127	0	0	2061
0	0	0	2052
1	0	0	2054
2	0	0	2077
3	0	0	2062
4	0	0	2073
5	0	0	2078
6	0	0	2086
7	0	0	2076
8	0	0	2069
9	0	0	2045
10	0	0	2061
11	0	0	2057
12	0	0	2067
13	0	0	2068
14	0	0	2058
15	0	0	2068
16	0	0	2060
17	0	0	2053
18	0	0	2067
19	0	0	2065
20	0	0	2079
21	0	0	2086
22	0	0	2072
23	0	0	2072
24	0	0	2073
25	0	0	2092
26	0	0	2076
27	0	0	2046
28	0	0	2051
29	0	0	2040
30	0	0	2054
31	0	0	2059
32	0	0	2074
33	0	0	2083
34	0	0	2085
35	0	0	2059
36	0	0	2050
37	0	0	2055
38	0	0	2062
39	0	0	2060
40	0	0	2051
41	0	0	2057
42	0	0	2069
43	0	0	2072
44	0	0	2083
45	0	0	2084
46	0	0	2092
47	0	0	2070
48	0	0	2051
49	0	0	2041
50	0	0	2057
51	0	0	2064
52	0	0	2039
53	0	0	2039
54	0	0	2041
55	0	0	2085
56	0	0	2096
57	0	0	2100
58	0	0	2095
59	0	0	2083
60	0	0	2090
61	0	0	2090
62	0	0	2103
63	0	0	2059
64	0	0	2015
65	0	0	2030
66	0	0	2039
67	0	0	2046
68	0	0	2088
69	0	0	2054
70	0	0	2068
71	0	0	2053
72	0	0	2048
73	0	0	2054
74	0	0	2062
75	0	0	2058
76	0	0	2070
77	0	0	2074
78	0	0	2073
79	0	0	2077
80	0	0	2052
81	0	0	2081
82	0	0	2040
83	0	0	2051
84	0	0	2020
85	0	0	2063
86	0	0	2116
87	0	0	2111
88	0	0	2109
89	0	0	2103
90	0	0	2104
91	0	0	2109
92	0	0	2133
93	0	0	2071
94	0	0	2008
95	0	0	2010
96	0	0	2036
97	0	0	2031
98	0	0	2022
99	0	0	2039
100	0	0	2036
101	0	0	2004
102	0	0	2017
103	0	0	2049
104	0	0	2072
105	0	0	2093
106	0	0	2100
107	0	0	2083
108	0	0	2092
109	0	0	2092
110	0	0	2069
111	0	0	2040
112	0	0	2081
113	0	0	2109
114	0	0	2173
115	0	0	2166
116	0	0	2122
117	0	0	2061
118	0	0	1926
119	0	0	1966
120	0	0	2043
121	0	0	2079
122	0	0	2076
123	0	0	2064
124	0	0	2043
125	0	0	1991
126	0	0	2011
127	0	0	2076
0	0	0	2112
1	0	0	2100
2	0	0	2094
3	0	0	2017
4	0	0	2009
5	0	0	2012
6	0	0	2036
7	0	0	2022
8	0	0	2088
9	0	0	2236
10	0	0	2314
11	0	0	2208
12	0	0	2131
13	0	0	2077
14	0	0	2044
15	0	0	1980
16	0	0	1948
17	0	0	1907
18	0	0	1947
19	0	0	2013
20	0	0	2062
21	0	0	2049
22	0	0	2044
23	0	0	2085
24	0	0	2173
25	0	0	2178
26	0	0	2033
27	0	0	1997
28	0	0	1992
29	0	0	2076
30	0	0	2096
31	0	0	2156
32	0	0	2106
33	0	0	2158
34	0	0	2136
35	0	0	1998
36	0	0	2046
37	0	0	2057
38	0	0	1996
39	0	0	1906
40	0	0	2005
41	0	0	2099
42	0	0	2071
43	0	0	2148
44	0	0	2178
45	0	0	2108
46	0	0	2169
47	0	0	2130
48	0	0	1852
49	0	0	1826
50	0	0	1970
51	0	0	2054
52	0	0	2090
53	0	0	2169
54	0	0	2235
55	0	0	2203
56	0	0	2098
57	0	0	2068
58	0	0	1996
59	0	0	1892
60	0	0	1910
61	0	0	1978
62	0	0	2056
63	0	0	2135
64	0	0	2188
65	0	0	2287
66	0	0	2147
67	0	0	2152
68	0	0	2059
69	0	0	2012
70	0	0	1948
71	0	0	1970
72	0	0	1951
73	0	0	1944
74	0	0	2002
75	0	0	2075
76	0	0	2109
77	0	0	2123
78	0	0	2152
79	0	0	2165
80	0	0	2119
81	0	0	2092
82	0	0	2119
83	0	0	2146
84	0	0	2153
85	0	0	2048
86	0	0	2048
87	0	0	2004
88	0	0	1976
89	0	0	2048
90	0	0	2051
91	0	0	1952
92	0	0	1975
93	0	0	2045
94	0	0	2090
95	0	0	2119
96	0	0	2190
97	0	0	2149
98	0	0	2111
99	0	0	2048
100	0	0	1981
101	0	0	1987
102	0	0	2011
103	0	0	2005
104	0	0	2041
105	0	0	2082
106	0	0	2031
107	0	0	2069
108	0	0	2109
109	0	0	2087
110	0	0	2139
111	0	0	2235
112	0	0	2244
113	0	0	2114
114	0	0	1975
115	0	0	1906
116	0	0	2036
117	0	0	2011
118	0	0	2006
119	0	0	2045
120	0	0	2097
121	0	0	2072
122	0	0	2087
123	0	0	2044
124	0	0	2054
125	0	0	2055
126	0	0	2059
127	0	0	2013
0	0	0	2014
1	0	0	2018
2	0	0	2065
3	0	0	2113
4	0	0	2117
5	0	0	2112
6	0	0	2124
7	0	0	2091
8	0	0	2033
9	0	0	2024
10	0	0	2027
11	0	0	2023
12	0	0	2043
13	0	0	2074
14	0	0	2033
15	0	0	2063
16	0	0	2123
17	0	0	2072
18	0	0	2010
19	0	0	2054
20	0	0	2100
21	0	0	2094
22	0	0	2076
23	0	0	2055
24	0	0	2081
25	0	0	2053
26	0	0	2127
27	0	0	2087
28	0	0	2061
29	0	0	2073
30	0	0	2091
31	0	0	2086
32	0	0	2052
33	0	0	2039
34	0	0	1989
35	0	0	1981
36	0	0	2028
37	0	0	2068
38	0	0	2112
39	0	0	2102
40	0	0	2138
41	0	0	2091
42	0	0	2036
43	0	0	2046
44	0	0	2056
45	0	0	2089
46	0	0	2051
47	0	0	2084
48	0	0	2141
49	0	0	2041
50	0	0	2064
51	0	0	2048
52	0	0	2026
53	0	0	2029
54	0	0	2008
55	0	0	2010
56	0	0	2059
57	0	0	2113
58	0	0	2257
59	0	0	2158
60	0	0	2078
61	0	0	2026
62	0	0	2041
63	0	0	2016
64	0	0	2026
65	0	0	2031
66	0	0	2031
67	0	0	2070
68	0	0	2031
69	0	0	2033
70	0	0	2048
71	0	0	2073
72	0	0	2083
73	0	0	2119
74	0	0	2097
75	0	0	2094
76	0	0	2063
77	0	0	2044
78	0	0	2081
79	0	0	2049
80	0	0	2066
81	0	0	2091
82	0	0	2095
83	0	0	2086
84	0	0	2052
85	0	0	2035
86	0	0	2054
87	0	0	2065
88	0	0	2073
89	0	0	2074
90	0	0	2076
91	0	0	2083
92	0	0	2061
93	0	0	2033
94	0	0	2034
95	0	0	2046
96	0	0	2059
97	0	0	2048
98	0	0	2033
99	0	0	2076
100	0	0	2073
101	0	0	2064
102	0	0	2139
103	0	0	2130
104	0	0	2074
105	0	0	2071
106	0	0	2077
107	0	0	2103
108	0	0	2057
109	0	0	2078
110	0	0	2079
111	0	0	2034
112	0	0	2034
113	0	0	2031
114	0	0	2026
115	0	0	2017
116	0	0	2051
117	0	0	2079
118	0	0	2070
119	0	0	2033
120	0	0	2110
121	0	0	2140
122	0	0	2082
123	0	0	2050
124	0	0	2079
125	0	0	2046
126	0	0	2060
127	0	0	2133
0	0	0	2071
1	0	0	2019
2	0	0	2032
3	0	0	2065
4	0	0	2066
5	0	0	2067
6	0	0	2059
7	0	0	2057
8	0	0	2061
9	0	0	2043
10	0	0	2036
11	0	0	2065
12	0	0	2083
13	0	0	2115
14	0	0	2111
15	0	0	2069
16	0	0	2042
17	0	0	2066
18	0	0	2093
19	0	0	2084
20	0	0	2000
21	0	0	1988
22	0	0	2057
23	0	0	2104
24	0	0	2132
25	0	0	2201
26	0	0	2077
27	0	0	2002
28	0	0	1999
29	0	0	2031
30	0	0	2074
31	0	0	2078
32	0	0	2066
33	0	0	2087
34	0	0	2067
35	0	0	2052
36	0	0	2070
37	0	0	2040
38	0	0	2069
39	0	0	2074
40	0	0	2045
41	0	0	2073
42	0	0	2090
43	0	0	2052
44	0	0	2036
45	0	0	2070
46	0	0	2069
47	0	0	2016
48	0	0	2021
49	0	0	2070
50	0	0	2091
51	0	0	2089
52	0	0	2129
53	0	0	2168
54	0	0	2085
55	0	0	2094
56	0	0	2109
57	0	0	2038
58	0	0	2003
59	0	0	2004
60	0	0	2019
61	0	0	2049
62	0	0	2043
63	0	0	2052
64	0	0	2064
65	0	0	2070
66	0	0	2075
67	0	0	2064
68	0	0	2037
69	0	0	2059
70	0	0	2071
71	0	0	2048
72	0	0	2054
73	0	0	2093
74	0	0	2077
75	0	0	2090
76	0	0	2089
77	0	0	2076
78	0	0	2059
79	0	0	2044
80	0	0	2056
81	0	0	2067
82	0	0	2091
83	0	0	2055
84	0	0	2083
85	0	0	2091
86	0	0	2066
87	0	0	2046
88	0	0	2039
89	0	0	2048
90	0	0	2049
91	0	0	2062
92	0	0	2061
93	0	0	2062
94	0	0	2074
95	0	0	2095
96	0	0	2073
97	0	0	2060
98	0	0	2055
99	0	0	2060
100	0	0	2065
101	0	0	2070
102	0	0	2068
103	0	0	2050
104	0	0	2042
105	0	0	2069
106	0	0	2075
107	0	0	2065
108	0	0	2067
109	0	0	2092
110	0	0	2053
111	0	0	2054
112	0	0	2108
113	0	0	2124
114	0	0	2104
115	0	0	2057
116	0	0	2049
117	0	0	2049
118	0	0	2052
119	0	0	2049
120	0	0	2051
121	0	0	2058
122	0	0	2074
123	0	0	2069
124	0	0	2055
125	0	0	2054
126	0	0	2067
127	0	0	2068
0	0	0	2067
1	0	0	2067
2	0	0	2063
3	0	0	2071
4	0	0	2078
5	0	0	2066
6	0	0	2061
7	0	0	2060
8	0	0	2065
9	0	0	2057
10	0	0	2069
11	0	0	2050
12	0	0	2076
13	0	0	2085
14	0	0	2089
15	0	0	2102
16	0	0	2099
17	0	0	2040
18	0	0	2043
19	0	0	2078
20	0	0	2078
21	0	0	2043
22	0	0	2039
23	0	0	2063
24	0	0	2063
25	0	0	2075
26	0	0	2075
27	0	0	2050
28	0	0	2035
29	0	0	2041
30	0	0	2054
31	0	0	2075
32	0	0	2093
33	0	0	2094
34	0	0	2070
35	0	0	2030
36	0	0	2067
37	0	0	2080
38	0	0	2107
39	0	0	2113
40	0	0	2082
41	0	0	2056
42	0	0	2026
43	0	0	2039
44	0	0	2053
45	0	0	2065
46	0	0	2061
47	0	0	2065
48	0	0	2063
49	0	0	2062
50	0	0	2063
51	0	0	2080
52	0	0	2078
53	0	0	2051
54	0	0	2062
55	0	0	2068
56	0	0	2077
57	0	0	2078
58	0	0	2073
59	0	0	2070
60	0	0	2061
61	0	0	2048
62	0	0	2040
63	0	0	2053
64	0	0	2069
65	0	0	2081
66	0	0	2083
67	0	0	2092
68	0	0	2079
69	0	0	2071
70	0	0	2082
71	0	0	2072
72	0	0	2090
73	0	0	2057
74	0	0	2059
75	0	0	2054
76	0	0	2045
77	0	0	2032
78	0	0	2048
79	0	0	2051
80	0	0	2054
81	0	0	2088
82	0	0	2091
83	0	0	2111
84	0	0	2067
85	0	0	2063
86	0	0	2066
87	0	0	2067
88	0	0	2064
89	0	0	2048
90	0	0	2049
91	0	0	2050
92	0	0	2065
93	0	0	2042
94	0	0	2070
95	0	0	2075
96	0	0	2050
97	0	0	2062
98	0	0	2057
99	0	0	2059
100	0	0	2051
101	0	0	2046
102	0	0	2069
103	0	0	2138
104	0	0	2118
105	0	0	2084
106	0	0	2038
107	0	0	2052
108	0	0	2063
109	0	0	2063
110	0	0	2089
111	0	0	2065
112	0	0	2050
113	0	0	2051
114	0	0	2044
115	0	0	2062
116	0	0	2066
117	0	0	2072
118	0	0	2062
119	0	0	2049
120	0	0	2048
121	0	0	2058
122	0	0	2071
123	0	0	2061
124	0	0	2075
125	0	0	2080
126	0	0	2074
127	0	0	2065
0	0	0	2064
1	0	0	2060
2	0	0	2063
3	0	0	2069
4	0	0	2060
5	0	0	2054
6	0	0	2062
7	0	0	2054
8	0	0	2059
9	0	0	2065
10	0	0	2063
11	0	0	2071
12	0	0	2090
13	0	0	2095
14	0	0	2080
15	0	0	2073
16	0	0	2074
17	0	0	2066
18	0	0	2060
19	0	0	2062
20	0	0	2062
21	0	0	2055
22	0	0	2043
23	0	0	2044
24	0	0	2063
25	0	0	2072
26	0	0	2084
27	0	0	2062
28	0	0	2067
29	0	0	2090
30	0	0	2059
31	0	0	2062
32	0	0	2055
33	0	0	2054
34	0	0	2066
35	0	0	2051
36	0	0	2028
37	0	0	2034
38	0	0	2066
39	0	0	2087
40	0	0	2101
41	0	0	2121
42	0	0	2099
43	0	0	2076
44	0	0	2046
45	0	0	2032
46	0	0	2052
47	0	0	2067
48	0	0	2076
49	0	0	2071
50	0	0	2061
51	0	0	2033
52	0	0	2045
53	0	0	2051
54	0	0	2055
55	0	0	2082
56	0	0	2086
57	0	0	2099
58	0	0	2077
59	0	0	2060
60	0	0	2071
61	0	0	2078
62	0	0	2052
63	0	0	2050
64	0	0	2069
65	0	0	2058
66	0	0	2057
67	0	0	2053
68	0	0	2058
69	0	0	2072
70	0	0	2058
71	0	0	2059
72	0	0	2076
73	0	0	2081
74	0	0	2065
75	0	0	2080
76	0	0	2106
77	0	0	2082
78	0	0	2044
79	0	0	2054
80	0	0	2061
81	0	0	2056
82	0	0	2062
83	0	0	2046
84	0	0	2041
85	0	0	2053
86	0	0	2062
87	0	0	2055
88	0	0	2054
89	0	0	2066
90	0	0	2082
91	0	0	2093
92	0	0	2132
93	0	0	2094
94	0	0	2060
95	0	0	2036
96	0	0	2056
97	0	0	2057
98	0	0	2048
99	0	0	2052
100	0	0	2059
101	0	0	2061
102	0	0	2055
103	0	0	2059
104	0	0	2071
105	0	0	2078
106	0	0	2094
107	0	0	2079
108	0	0	2062
109	0	0	2065
110	0	0	2068
111	0	0	2058
112	0	0	2057
113	0	0	2066
114	0	0	2065
115	0	0	2063
116	0	0	2048
117	0	0	2072
118	0	0	2060
119	0	0	2065
120	0	0	2069
121	0	0	2066
122	0	0	2071
123	0	0	2069
124	0	0	2058
125	0	0	2071
126	0	0	2071
127	0	0	2065
0	0	0	2063
1	0	0	2077
2	0	0	2089
3	0	0	2070
4	0	0	2061
5	0	0	2063
6	0	0	2054
7	0	0	2043
8	0	0	2055
9	0	0	2057
10	0	0	2073
11	0	0	2094
12	0	0	2125
13	0	0	2091
14	0	0	2048
15	0	0	2033
16	0	0	2041
17	0	0	2055
18	0	0	2048
19	0	0	2044
20	0	0	2051
21	0	0	2066
22	0	0	2080
23	0	0	2086
24	0	0	2075
25	0	0	2052
26	0	0	2063
27	0	0	2080
28	0	0	2072
29	0	0	2057
30	0	0	2060
31	0	0	2063
32	0	0	2058
33	0	0	2060
34	0	0	2058
35	0	0	2062
36	0	0	2069
37	0	0	2076
38	0	0	2084
39	0	0	2075
40	0	0	2089
41	0	0	2067
42	0	0	2077
43	0	0	2062
44	0	0	2049
45	0	0	2046
46	0	0	2059
47	0	0	2068
48	0	0	2064
49	0	0	2068
50	0	0	2073
51	0	0	2068
52	0	0	2064
53	0	0	2068
54	0	0	2073
55	0	0	2073
56	0	0	2065
57	0	0	2066
58	0	0	2065
59	0	0	2056
60	0	0	2075
61	0	0	2073
62	0	0	2051
63	0	0	2062
64	0	0	2068
65	0	0	2065
66	0	0	2059
67	0	0	2063
68	0	0	2079
69	0	0	2083
70	0	0	2070
71	0	0	2070
72	0	0	2064
73	0	0	2050
74	0	0	2044
75	0	0	2061
76	0	0	2053
77	0	0	2067
78	0	0	2075
79	0	0	2076
80	0	0	2059
81	0	0	2053
82	0	0	2059
83	0	0	2066
84	0	0	2071
85	0	0	2062
86	0	0	2084
87	0	0	2079
88	0	0	2091
89	0	0	2076
90	0	0	2085
91	0	0	2076
92	0	0	2055
93	0	0	2054
94	0	0	2055
95	0	0	2054
96	0	0	2054
97	0	0	2072
98	0	0	2084
99	0	0	2071
100	0	0	2056
101	0	0	2040
102	0	0	2049
103	0	0	2079
104	0	0	2063
105	0	0	2045
106	0	0	2046
107	0	0	2069
108	0	0	2074
109	0	0	2058
110	0	0	2062
111	0	0	2076
112	0	0	2071
113	0	0	2062
114	0	0	2057
115	0	0	2065
116	0	0	2075
117	0	0	2084
118	0	0	2083
119	0	0	2085
120	0	0	2065
121	0	0	2052
122	0	0	2051
123	0	0	2055
124	0	0	2056
125	0	0	2066
126	0	0	2056
127	0	0	2073
0	0	0	2068
1	0	0	2053
2	0	0	2066
3	0	0	2077
4	0	0	2085
5	0	0	2064
6	0	0	2058
7	0	0	2074
8	0	0	2056
9	0	0	2049
10	0	0	2061
11	0	0	2077
12	0	0	2075
13	0	0	2051
14	0	0	2073
15	0	0	2076
16	0	0	2060
17	0	0	2071
18	0	0	2063
19	0	0	2070
20	0	0	2068
21	0	0	2053
22	0	0	2057
23	0	0	2058
24	0	0	2067
25	0	0	2071
26	0	0	2070
27	0	0	2068
28	0	0	2065
29	0	0	2078
30	0	0	2072
31	0	0	2061
32	0	0	2062
33	0	0	2063
34	0	0	2068
35	0	0	2075
36	0	0	2062
37	0	0	2071
38	0	0	2055
39	0	0	2062
40	0	0	2055
41	0	0	2068
42	0	0	2061
43	0	0	2073
44	0	0	2086
45	0	0	2078
46	0	0	2071
47	0	0	2078
48	0	0	2079
49	0	0	2061
50	0	0	2051
51	0	0	2063
52	0	0	2065
53	0	0	2075
54	0	0	2059
55	0	0	2066
56	0	0	2060
57	0	0	2056
58	0	0	2073
59	0	0	2065
60	0	0	2049
61	0	0	2060
62	0	0	2061
63	0	0	2066
64	0	0	2062
65	0	0	2056
66	0	0	2066
67	0	0	2073
68	0	0	2095
69	0	0	2073
70	0	0	2062
71	0	0	2072
72	0	0	2051
73	0	0	2059
74	0	0	2056
75	0	0	2059
76	0	0	2070
77	0	0	2075
78	0	0	2068
79	0	0	2078
80	0	0	2076
81	0	0	2093
82	0	0	2060
83	0	0	2077
84	0	0	2082
85	0	0	2059
86	0	0	2046
87	0	0	2069
88	0	0	2061
89	0	0	2042
90	0	0	2038
91	0	0	2050
92	0	0	2052
93	0	0	2061
94	0	0	2086
95	0	0	2093
96	0	0	2091
97	0	0	2087
98	0	0	2072
99	0	0	2073
100	0	0	2059
101	0	0	2042
102	0	0	2041
103	0	0	2065
104	0	0	2073
105	0	0	2077
106	0	0	2105
107	0	0	2076
108	0	0	2043
109	0	0	2053
110	0	0	2057
111	0	0	2052
112	0	0	2064
113	0	0	2080
114	0	0	2058
115	0	0	2070
116	0	0	2090
117	0	0	2073
118	0	0	2051
119	0	0	2063
120	0	0	2051
121	0	0	2062
122	0	0	2061
123	0	0	2062
124	0	0	2052
125	0	0	2068
126	0	0	2085
127	0	0	2068
0	0	0	2064
1	0	0	2063
2	0	0	2062
3	0	0	2061
4	0	0	2076
5	0	0	2060
6	0	0	2067
7	0	0	2079
8	0	0	2073
9	0	0	2050
10	0	0	2056
11	0	0	2055
12	0	0	2071
13	0	0	2076
14	0	0	2074
15	0	0	2060
16	0	0	2085
17	0	0	2079
18	0	0	2085
19	0	0	2057
20	0	0	2044
21	0	0	2056
22	0	0	2048
23	0	0	2082
24	0	0	2069
25	0	0	2083
26	0	0	2089
27	0	0	2044
28	0	0	2039
29	0	0	2065
30	0	0	2071
31	0	0	2048
32	0	0	2057
33	0	0	2056
34	0	0	2050
35	0	0	2062
36	0	0	2067
37	0	0	2070
38	0	0	2068
39	0	0	2081
40	0	0	2065
41	0	0	2095
42	0	0	2092
43	0	0	2092
44	0	0	2095
45	0	0	2071
46	0	0	2055
47	0	0	2069
48	0	0	2038
49	0	0	2031
50	0	0	2059
51	0	0	2032
52	0	0	2042
53	0	0	2057
54	0	0	2049
55	0	0	2059
56	0	0	2077
57	0	0	2093
58	0	0	2078
59	0	0	2068
60	0	0	2096
61	0	0	2072
62	0	0	2040
63	0	0	2051
64	0	0	2064
65	0	0	2080
66	0	0	2069
67	0	0	2055
68	0	0	2058
69	0	0	2074
70	0	0	2083
71	0	0	2062
72	0	0	2065
73	0	0	2064
74	0	0	2056
75	0	0	2066
76	0	0	2060
77	0	0	2048
78	0	0	2054
79	0	0	2064
80	0	0	2069
81	0	0	2075
82	0	0	2072
83	0	0	2057
84	0	0	2070
85	0	0	2069
86	0	0	2061
87	0	0	2071
88	0	0	2082
89	0	0	2095
90	0	0	2051
91	0	0	2061
92	0	0	2039
93	0	0	2054
94	0	0	2068
95	0	0	2067
96	0	0	2070
97	0	0	2084
98	0	0	2067
99	0	0	2084
100	0	0	2099
101	0	0	2079
102	0	0	2046
103	0	0	2042
104	0	0	2052
105	0	0	2058
106	0	0	2076
107	0	0	2042
108	0	0	2065
109	0	0	2056
110	0	0	2038
111	0	0	2046
112	0	0	2036
113	0	0	2040
114	0	0	2069
115	0	0	2113
116	0	0	2114
117	0	0	2131
118	0	0	2136
119	0	0	2072
120	0	0	2000
121	0	0	2022
122	0	0	2044
123	0	0	2039
124	0	0	2054
125	0	0	2042
126	0	0	2075
127	0	0	2122
0	0	0	2089
1	0	0	2080
2	0	0	2068
3	0	0	2055
4	0	0	2038
5	0	0	2038
6	0	0	2070
7	0	0	2104
8	0	0	2114
9	0	0	2059
10	0	0	2028
11	0	0	2030
12	0	0	2042
13	0	0	2054
14	0	0	2070
15	0	0	2089
16	0	0	2063
17	0	0	2062
18	0	0	2053
19	0	0	2052
20	0	0	2042
21	0	0	2078
22	0	0	2070
23	0	0	2052
24	0	0	2095
25	0	0	2081
26	0	0	2079
27	0	0	2067
28	0	0	2080
29	0	0	2089
30	0	0	2052
31	0	0	2064
32	0	0	2077
33	0	0	2097
34	0	0	2021
35	0	0	2038
36	0	0	2055
37	0	0	2060
38	0	0	2069
39	0	0	2081
40	0	0	2080
41	0	0	2066
42	0	0	2060
43	0	0	2074
44	0	0	2086
45	0	0	2088
46	0	0	2056
47	0	0	2014
48	0	0	2026
49	0	0	2075
50	0	0	2069
51	0	0	2068
52	0	0	2087
53	0	0	2096
54	0	0	2081
55	0	0	2079
56	0	0	2043
57	0	0	2027
58	0	0	2040
59	0	0	2062
60	0	0	2085
61	0	0	2074
62	0	0	2079
63	0	0	2086
64	0	0	2078
65	0	0	2066
66	0	0	2081
67	0	0	2051
68	0	0	2059
69	0	0	2064
70	0	0	2054
71	0	0	2037
72	0	0	2035
73	0	0	2069
74	0	0	2093
75	0	0	2112
76	0	0	2096
77	0	0	2088
78	0	0	2055
79	0	0	2071
80	0	0	2032
81	0	0	1997
82	0	0	2043
83	0	0	2044
84	0	0	2076
85	0	0	2112
86	0	0	2095
87	0	0	2088
88	0	0	2068
89	0	0	2067
90	0	0	2069
91	0	0	2062
92	0	0	2028
93	0	0	2052
94	0	0	2050
95	0	0	2034
96	0	0	2037
97	0	0	2039
98	0	0	2066
99	0	0	2092
100	0	0	2112
101	0	0	2093
102	0	0	2093
103	0	0	2101
104	0	0	2044
105	0	0	2022
106	0	0	2048
107	0	0	2050
108	0	0	2073
109	0	0	2079
110	0	0	2060
111	0	0	2062
112	0	0	2050
113	0	0	2060
114	0	0	2068
115	0	0	2066
116	0	0	2046
117	0	0	2064
118	0	0	2057
119	0	0	2073
120	0	0	2096
121	0	0	2116
122	0	0	2121
123	0	0	2109
124	0	0	2049
125	0	0	2031
126	0	0	2052
127	0	0	2034
0	0	0	2045
1	0	0	2005
2	0	0	2030
3	0	0	2071
4	0	0	2071
5	0	0	2092
6	0	0	2112
7	0	0	2132
8	0	0	2142
9	0	0	2084
10	0	0	2039
11	0	0	2035
12	0	0	2031
13	0	0	2052
14	0	0	2029
15	0	0	2072
16	0	0	2060
17	0	0	2026
18	0	0	2071
19	0	0	2086
20	0	0	2090
21	0	0	2079
22	0	0	2084
23	0	0	2092
24	0	0	2057
25	0	0	2048
26	0	0	2061
27	0	0	2054
28	0	0	2073
29	0	0	2045
30	0	0	2041
31	0	0	2065
32	0	0	2076
33	0	0	2088
34	0	0	2060
35	0	0	2050
36	0	0	2075
37	0	0	2096
38	0	0	2031
39	0	0	2046
40	0	0	2035
41	0	0	2055
42	0	0	2069
43	0	0	2071
44	0	0	2107
45	0	0	2094
46	0	0	2062
47	0	0	2054
48	0	0	2056
49	0	0	2061
50	0	0	2043
51	0	0	2065
52	0	0	2063
53	0	0	2123
54	0	0	2116
55	0	0	2053
56	0	0	2067
57	0	0	2046
58	0	0	2058
59	0	0	2081
60	0	0	2103
61	0	0	2061
62	0	0	2075
63	0	0	2069
64	0	0	2016
65	0	0	2052
66	0	0	2046
67	0	0	2049
68	0	0	2046
69	0	0	2026
70	0	0	2055
71	0	0	2058
72	0	0	2098
73	0	0	2125
74	0	0	2094
75	0	0	2057
76	0	0	2061
77	0	0	2012
78	0	0	2021
79	0	0	2056
80	0	0	2072
81	0	0	2111
82	0	0	2123
83	0	0	2137
84	0	0	2092
85	0	0	2070
86	0	0	2069
87	0	0	1996
88	0	0	2022
89	0	0	2073
90	0	0	2021
91	0	0	2020
92	0	0	2022
93	0	0	2057
94	0	0	2071
95	0	0	2098
96	0	0	2116
97	0	0	2148
98	0	0	2141
99	0	0	2063
100	0	0	2102
101	0	0	2028
102	0	0	1936
103	0	0	1985
104	0	0	2067
105	0	0	2111
106	0	0	2107
107	0	0	2104
108	0	0	2116
109	0	0	2075
110	0	0	2017
111	0	0	1905
112	0	0	1892
113	0	0	1980
114	0	0	2060
115	0	0	2103
116	0	0	2194
117	0	0	2135
118	0	0	2201
119	0	0	2207
120	0	0	2182
121	0	0	2036
122	0	0	1938
123	0	0	2023
124	0	0	2040
125	0	0	2070
126	0	0	2058
127	0	0	2071
0	0	0	2132
1	0	0	2137
2	0	0	2105
3	0	0	2156
4	0	0	2069
5	0	0	1926
6	0	0	1901
7	0	0	1980
8	0	0	2050
9	0	0	2009
10	0	0	2068
11	0	0	2177
12	0	0	2030
13	0	0	1932
14	0	0	1948
15	0	0	2064
16	0	0	2099
17	0	0	2126
18	0	0	2197
19	0	0	2145
20	0	0	2146
21	0	0	2127
22	0	0	2099
23	0	0	2113
24	0	0	2128
25	0	0	2073
26	0	0	1992
27	0	0	1929
28	0	0	1963
29	0	0	1941
30	0	0	1999
31	0	0	2050
32	0	0	2117
33	0	0	2074
34	0	0	2152
35	0	0	2161
36	0	0	2194
37	0	0	2104
38	0	0	2080
39	0	0	2022
40	0	0	1864
41	0	0	1978
42	0	0	2057
43	0	0	2083
44	0	0	2093
45	0	0	2158
46	0	0	2218
47	0	0	2209
48	0	0	1987
49	0	0	1873
50	0	0	2010
51	0	0	1998
52	0	0	2055
53	0	0	2096
54	0	0	2154
55	0	0	2193
56	0	0	2163
57	0	0	1981
58	0	0	2060
59	0	0	2113
60	0	0	2016
61	0	0	1960
62	0	0	2074
63	0	0	2095
64	0	0	2119
65	0	0	2139
66	0	0	2162
67	0	0	2157
68	0	0	1984
69	0	0	1889
70	0	0	1955
71	0	0	1994
72	0	0	2042
73	0	0	2193
74	0	0	2144
75	0	0	2073
76	0	0	2149
77	0	0	2149
78	0	0	2117
79	0	0	2142
80	0	0	2105
81	0	0	2012
82	0	0	1960
83	0	0	2002
84	0	0	1979
85	0	0	1950
86	0	0	1980
87	0	0	2023
88	0	0	2128
89	0	0	2173
90	0	0	2197
91	0	0	2163
92	0	0	2172
93	0	0	2076
94	0	0	1995
95	0	0	1921
96	0	0	1924
97	0	0	1979
98	0	0	2029
99	0	0	2105
100	0	0	2147
101	0	0	2137
102	0	0	2005
103	0	0	1959
104	0	0	2061
105	0	0	2096
106	0	0	2153
107	0	0	2194
108	0	0	2156
109	0	0	2046
110	0	0	1959
111	0	0	1988
112	0	0	1986
113	0	0	2007
114	0	0	2049
115	0	0	2083
116	0	0	2080
117	0	0	2079
118	0	0	2081
119	0	0	2037
120	0	0	2029
121	0	0	2058
122	0	0	2071
123	0	0	2120
124	0	0	2165
125	0	0	2083
126	0	0	2075
127	0	0	2040
0	0	0	2001
1	0	0	2058
2	0	0	2082
3	0	0	2051
4	0	0	2028
5	0	0	2024
6	0	0	2023
7	0	0	2043
8	0	0	2077
9	0	0	2081
10	0	0	2104
11	0	0	2112
12	0	0	2114
13	0	0	2103
14	0	0	2095
15	0	0	2036
16	0	0	2046
17	0	0	2060
18	0	0	2059
19	0	0	2072
20	0	0	2049
21	0	0	2097
22	0	0	2022
23	0	0	2025
24	0	0	2067
25	0	0	2044
26	0	0	2059
27	0	0	2040
28	0	0	2046
29	0	0	2078
30	0	0	2068
31	0	0	2097
32	0	0	2104
33	0	0	2096
34	0	0	2079
35	0	0	2068
36	0	0	2044
37	0	0	2053
38	0	0	2026
39	0	0	2036
40	0	0	2061
41	0	0	2084
42	0	0	2087
43	0	0	2127
44	0	0	2099
45	0	0	2070
46	0	0	2071
47	0	0	2039
48	0	0	2061
49	0	0	2068
50	0	0	2054
51	0	0	2044
52	0	0	2022
53	0	0	2042
54	0	0	2062
55	0	0	2098
56	0	0	2113
57	0	0	2128
58	0	0	2124
59	0	0	2012
60	0	0	2011
61	0	0	2004
62	0	0	2055
63	0	0	2093
64	0	0	2130
65	0	0	2197
66	0	0	2133
67	0	0	2004
68	0	0	2020
69	0	0	2053
70	0	0	2031
71	0	0	2023
72	0	0	2034
73	0	0	2032
74	0	0	2071
75	0	0	2099
76	0	0	2109
77	0	0	2054
78	0	0	2036
79	0	0	2069
80	0	0	2065
81	0	0	2082
82	0	0	2103
83	0	0	2087
84	0	0	2032
85	0	0	2038
86	0	0	2063
87	0	0	2027
88	0	0	2039
89	0	0	2076
90	0	0	2078
91	0	0	2109
92	0	0	2096
93	0	0	2063
94	0	0	2094
95	0	0	2090
96	0	0	2066
97	0	0	2040
98	0	0	2040
99	0	0	2051
100	0	0	2048
101	0	0	2053
102	0	0	2063
103	0	0	2081
104	0	0	2084
105	0	0	2067
106	0	0	2039
107	0	0	2054
108	0	0	2062
109	0	0	2076
110	0	0	2099
111	0	0	2076
112	0	0	2051
113	0	0	2050
114	0	0	2078
115	0	0	2063
116	0	0	2079
117	0	0	2074
118	0	0	2086
119	0	0	2077
120	0	0	2040
121	0	0	2029
122	0	0	2049
123	0	0	2080
124	0	0	2076
125	0	0	2105
126	0	0	2089
127	0	0	2035
0	0	0	2035
1	0	0	2049
2	0	0	2038
3	0	0	2112
4	0	0	2107
5	0	0	2045
6	0	0	2073
7	0	0	2040
8	0	0	2023
9	0	0	2014
10	0	0	2070
11	0	0	2152
12	0	0	2164
13	0	0	2063
14	0	0	2076
15	0	0	2059
16	0	0	2017
17	0	0	2032
18	0	0	2065
19	0	0	2060
20	0	0	2041
21	0	0	2041
22	0	0	2037
23	0	0	2049
24	0	0	2071
25	0	0	2075
26	0	0	2094
27	0	0	2063
28	0	0	2044
29	0	0	2060
30	0	0	2099
31	0	0	2118
32	0	0	2123
33	0	0	2080
34	0	0	2029
35	0	0	2033
36	0	0	2034
37	0	0	2066
38	0	0	2062
39	0	0	2079
40	0	0	2058
41	0	0	2020
42	0	0	2057
43	0	0	2060
44	0	0	2094
45	0	0	2133
46	0	0	2085
47	0	0	2046
48	0	0	2036
49	0	0	2052
50	0	0	2046
51	0	0	2046
52	0	0	2083
53	0	0	2097
54	0	0	2053
55	0	0	2057
56	0	0	2053
57	0	0	2065
58	0	0	2086
59	0	0	2060
60	0	0	2053
61	0	0	2052
62	0	0	2053
63	0	0	2050
64	0	0	2076
65	0	0	2104
66	0	0	2061
67	0	0	2084
68	0	0	2065
69	0	0	2049
70	0	0	2062
71	0	0	2061
72	0	0	2072
73	0	0	2069
74	0	0	2073
75	0	0	2057
76	0	0	2060
77	0	0	2068
78	0	0	2073
79	0	0	2078
80	0	0	2057
81	0	0	2061
82	0	0	2062
83	0	0	2059
84	0	0	2049
85	0	0	2043
86	0	0	2078
87	0	0	2067
88	0	0	2075
89	0	0	2103
90	0	0	2095
91	0	0	2042
92	0	0	2040
93	0	0	2062
94	0	0	2077
95	0	0	2069
96	0	0	2096
97	0	0	2091
98	0	0	2046
99	0	0	2049
100	0	0	2054
101	0	0	2058
102	0	0	2061
103	0	0	2062
104	0	0	2062
105	0	0	2057
106	0	0	2044
107	0	0	2047
108	0	0	2070
109	0	0	2090
110	0	0	2084
111	0	0	2086
112	0	0	2107
113	0	0	2085
114	0	0	2029
115	0	0	2030
116	0	0	2036
117	0	0	2059
118	0	0	2086
119	0	0	2099
120	0	0	2061
121	0	0	2048
122	0	0	2060
123	0	0	2063
124	0	0	2057
125	0	0	2028
126	0	0	2040
127	0	0	2060
0	0	0	2067
1	0	0	2095
2	0	0	2117
3	0	0	2104
4	0	0	2082
5	0	0	2071
6	0	0	2065
7	0	0	2042
8	0	0	2063
9	0	0	2056
10	0	0	2065
11	0	0	2049
12	0	0	2069
13	0	0	2067
14	0	0	2082
15	0	0	2091
16	0	0	2086
17	0	0	2063
18	0	0	2051
19	0	0	2029
20	0	0	2054
21	0	0	2064
22	0	0	2079
23	0	0	2065
24	0	0	2059
25	0	0	2073
26	0	0	2071
27	0	0	2087
28	0	0	2064
29	0	0	2067
30	0	0	2057
31	0	0	2058
32	0	0	2057
33	0	0	2058
34	0	0	2054
35	0	0	2060
36	0	0	2066
37	0	0	2075
38	0	0	2064
39	0	0	2053
40	0	0	2070
41	0	0	2072
42	0	0	2066
43	0	0	2063
44	0	0	2061
45	0	0	2072
46	0	0	2063
47	0	0	2058
48	0	0	2067
49	0	0	2072
50	0	0	2056
51	0	0	2079
52	0	0	2059
53	0	0	2065
54	0	0	2087
55	0	0	2045
56	0	0	2036
57	0	0	2048
58	0	0	2073
59	0	0	2098
60	0	0	2086
61	0	0	2106
62	0	0	2093
63	0	0	2050
64	0	0	2044
65	0	0	2052
66	0	0	2053
67	0	0	2055
68	0	0	2056
69	0	0	2069
70	0	0	2064
71	0	0	2059
72	0	0	2066
73	0	0	2077
74	0	0	2074
75	0	0	2063
76	0	0	2071
77	0	0	2063
78	0	0	2063
79	0	0	2057
80	0	0	2060
81	0	0	2042
82	0	0	2056
83	0	0	2060
84	0	0	2062
85	0	0	2070
86	0	0	2101
87	0	0	2118
88	0	0	2086
89	0	0	2091
90	0	0	2061
91	0	0	2049
92	0	0	2052
93	0	0	2051
94	0	0	2061
95	0	0	2066
96	0	0	2084
97	0	0	2072
98	0	0	2039
99	0	0	2046
100	0	0	2039
101	0	0	2075
102	0	0	2065
103	0	0	2076
104	0	0	2087
105	0	0	2076
106	0	0	2067
107	0	0	2044
108	0	0	2044
109	0	0	2062
110	0	0	2065
111	0	0	2058
112	0	0	2069
113	0	0	2072
114	0	0	2102
115	0	0	2098
116	0	0	2080
117	0	0	2075
118	0	0	2048
119	0	0	2049
120	0	0	2052
121	0	0	2046
122	0	0	2045
123	0	0	2046
124	0	0	2073
125	0	0	2069
126	0	0	2070
127	0	0	2063
0	0	0	2077
1	0	0	2100
2	0	0	2086
3	0	0	2035
4	0	0	2019
5	0	0	2053
6	0	0	2080
7	0	0	2112
8	0	0	2073
9	0	0	2089
10	0	0	2053
11	0	0	2044
12	0	0	2060
13	0	0	2071
14	0	0	2059
15	0	0	2060
16	0	0	2074
17	0	0	2084
18	0	0	2079
19	0	0	2074
20	0	0	2055
21	0	0	2051
22	0	0	2052
23	0	0	2071
24	0	0	2058
25	0	0	2061
26	0	0	2070
27	0	0	2069
28	0	0	2078
29	0	0	2058
30	0	0	2060
31	0	0	2057
32	0	0	2057
33	0	0	2070
34	0	0	2071
35	0	0	2077
36	0	0	2066
37	0	0	2068
38	0	0	2065
39	0	0	2069
40	0	0	2060
41	0	0	2071
42	0	0	2067
43	0	0	2070
44	0	0	2058
45	0	0	2045
46	0	0	2052
47	0	0	2055
48	0	0	2057
49	0	0	2052
50	0	0	2048
51	0	0	2067
52	0	0	2090
53	0	0	2108
54	0	0	2121
55	0	0	2089
56	0	0	2074
57	0	0	2049
58	0	0	2015
59	0	0	1978
60	0	0	2020
61	0	0	2078
62	0	0	2113
63	0	0	2140
64	0	0	2131
65	0	0	2113
66	0	0	2051
67	0	0	2014
68	0	0	2024
69	0	0	2048
70	0	0	2065
71	0	0	2063
72	0	0	2057
73	0	0	2044
74	0	0	2051
75	0	0	2061
76	0	0	2066
77	0	0	2075
78	0	0	2064
79	0	0	2051
80	0	0	2049
81	0	0	2057
82	0	0	2062
83	0	0	2077
84	0	0	2062
85	0	0	2052
86	0	0	2060
87	0	0	2087
88	0	0	2080
89	0	0	2065
90	0	0	2075
91	0	0	2072
92	0	0	2083
93	0	0	2060
94	0	0	2062
95	0	0	2052
96	0	0	2071
97	0	0	2065
98	0	0	2057
99	0	0	2059
100	0	0	2071
101	0	0	2073
102	0	0	2116
103	0	0	2083
104	0	0	2067
105	0	0	2046
106	0	0	2047
107	0	0	2048
108	0	0	2057
109	0	0	2072
110	0	0	2056
111	0	0	2075
112	0	0	2078
113	0	0	2063
114	0	0	2052
115	0	0	2063
116	0	0	2068
117	0	0	2072
118	0	0	2059
119	0	0	2062
120	0	0	2067
121	0	0	2078
122	0	0	2062
123	0	0	2070
124	0	0	2069
125	0	0	2094
126	0	0	2069
127	0	0	2058
0	0	0	2061
1	0	0	2052
2	0	0	2056
3	0	0	2066
4	0	0	2060
5	0	0	2079
6	0	0	2074
7	0	0	2059
8	0	0	2055
9	0	0	2086
10	0	0	2077
11	0	0	2067
12	0	0	2052
13	0	0	2061
14	0	0	2042
15	0	0	2050
16	0	0	2063
17	0	0	2082
18	0	0	2094
19	0	0	2107
20	0	0	2098
21	0	0	2075
22	0	0	2073
23	0	0	2035
24	0	0	2039
25	0	0	2044
26	0	0	2046
27	0	0	2049
28	0	0	2062
29	0	0	2062
30	0	0	2049
31	0	0	2031
32	0	0	2040
33	0	0	2072
34	0	0	2102
35	0	0	2107
36	0	0	2107
37	0	0	2083
38	0	0	2062
39	0	0	2067
40	0	0	2053
41	0	0	2058
42	0	0	2058
43	0	0	2067
44	0	0	2073
45	0	0	2044
46	0	0	2045
47	0	0	2053
48	0	0	2063
49	0	0	2058
50	0	0	2059
51	0	0	2034
52	0	0	2070
53	0	0	2098
54	0	0	2073
55	0	0	2084
56	0	0	2094
57	0	0	2097
58	0	0	2079
59	0	0	2046
60	0	0	2059
61	0	0	2067
62	0	0	2060
63	0	0	2051
64	0	0	2053
65	0	0	2059
66	0	0	2074
67	0	0	2075
68	0	0	2060
69	0	0	2050
70	0	0	2061
71	0	0	2056
72	0	0	2046
73	0	0	2056
74	0	0	2088
75	0	0	2088
76	0	0	2084
77	0	0	2069
78	0	0	2065
79	0	0	2066
80	0	0	2066
81	0	0	2058
82	0	0	2058
83	0	0	2067
84	0	0	2061
85	0	0	2077
86	0	0	2074
87	0	0	2075
88	0	0	2069
89	0	0	2059
90	0	0	2062
91	0	0	2060
92	0	0	2056
93	0	0	2067
94	0	0	2069
95	0	0	2067
96	0	0	2065
97	0	0	2064
98	0	0	2062
99	0	0	2073
100	0	0	2067
101	0	0	2064
102	0	0	2061
103	0	0	2068
104	0	0	2081
105	0	0	2080
106	0	0	2040
107	0	0	2042
108	0	0	2066
109	0	0	2059
110	0	0	2070
111	0	0	2080
112	0	0	2073
113	0	0	2073
114	0	0	2107
115	0	0	2085
116	0	0	2063
117	0	0	2052
118	0	0	2023
119	0	0	2034
120	0	0	2064
121	0	0	2077
122	0	0	2079
123	0	0	2090
124	0	0	2087
125	0	0	2093
126	0	0	2064
127	0	0	2019
0	0	0	2019
1	0	0	2028
2	0	0	2053
3	0	0	2078
4	0	0	2080
5	0	0	2082
6	0	0	2105
7	0	0	2082
8	0	0	2058
9	0	0	2059
10	0	0	2042
11	0	0	2056
12	0	0	2083
13	0	0	2116
14	0	0	2066
15	0	0	2074
16	0	0	2087
17	0	0	2055
18	0	0	2032
19	0	0	2062
20	0	0	2083
21	0	0	2054
22	0	0	2051
23	0	0	2062
24	0	0	2068
25	0	0	2058
26	0	0	2053
27	0	0	2064
28	0	0	2051
29	0	0	2045
30	0	0	2059
31	0	0	2077
32	0	0	2079
33	0	0	2062
34	0	0	2061
35	0	0	2063
36	0	0	2057
37	0	0	2067
38	0	0	2072
39	0	0	2075
40	0	0	2096
41	0	0	2105
42	0	0	2088
43	0	0	2057
44	0	0	2044
45	0	0	2055
46	0	0	2052
47	0	0	2061
48	0	0	2095
49	0	0	2063
50	0	0	2040
51	0	0	2041
52	0	0	2055
53	0	0	2053
54	0	0	2075
55	0	0	2077
56	0	0	2063
57	0	0	2080
58	0	0	2093
59	0	0	2121
60	0	0	2109
61	0	0	2063
62	0	0	2053
63	0	0	2039
64	0	0	2029
65	0	0	2016
66	0	0	2050
67	0	0	2059
68	0	0	2056
69	0	0	2112
70	0	0	2105
71	0	0	2065
72	0	0	2069
73	0	0	2074
74	0	0	2077
75	0	0	2069
76	0	0	2075
77	0	0	2050
78	0	0	2052
79	0	0	2066
80	0	0	2060
81	0	0	2048
82	0	0	2058
83	0	0	2061
84	0	0	2073
85	0	0	2084
86	0	0	2077
87	0	0	2039
88	0	0	2055
89	0	0	2055
90	0	0	2054
91	0	0	2065
92	0	0	2088
93	0	0	2096
94	0	0	2101
95	0	0	2079
96	0	0	2062
97	0	0	2048
98	0	0	2045
99	0	0	2042
100	0	0	2077
101	0	0	2083
102	0	0	2076
103	0	0	2075
104	0	0	2073
105	0	0	2058
106	0	0	2041
107	0	0	2038
108	0	0	2055
109	0	0	2081
110	0	0	2080
111	0	0	2083
112	0	0	2090
113	0	0	2080
114	0	0	2062
115	0	0	2066
116	0	0	2070
117	0	0	2081
118	0	0	2076
119	0	0	2067
120	0	0	2050
121	0	0	2039
122	0	0	2031
123	0	0	2052
124	0	0	2067
125	0	0	2071
126	0	0	2046
127	0	0	2058
0	0	0	2060
1	0	0	2045
2	0	0	2067
3	0	0	2081
4	0	0	2102
5	0	0	2095
6	0	0	2072
7	0	0	2059
8	0	0	2079
9	0	0	2079
10	0	0	2062
11	0	0	2031
12	0	0	2048
13	0	0	2050
14	0	0	2066
15	0	0	2079
16	0	0	2108
17	0	0	2064
18	0	0	2071
19	0	0	2074
20	0	0	2040
21	0	0	2052
22	0	0	2087
23	0	0	2081
24	0	0	2060
25	0	0	2064
26	0	0	2056
27	0	0	2051
28	0	0	2054
29	0	0	2043
30	0	0	2051
31	0	0	2067
32	0	0	2079
33	0	0	2072
34	0	0	2073
35	0	0	2032
36	0	0	2069
37	0	0	2079
38	0	0	2079
39	0	0	2111
40	0	0	2134
41	0	0	2095
42	0	0	2068
43	0	0	2090
44	0	0	2031
45	0	0	1996
46	0	0	2024
47	0	0	2049
48	0	0	2050
49	0	0	2060
50	0	0	2073
51	0	0	2078
52	0	0	2082
53	0	0	2065
54	0	0	2072
55	0	0	2060
56	0	0	2050
57	0	0	2045
58	0	0	2061
59	0	0	2064
60	0	0	2050
61	0	0	2072
62	0	0	2076
63	0	0	2102
64	0	0	2108
65	0	0	2097
66	0	0	2049
67	0	0	2027
68	0	0	2058
69	0	0	2056
70	0	0	2052
71	0	0	2067
72	0	0	2107
73	0	0	2129
74	0	0	2085
75	0	0	2061
76	0	0	2054
77	0	0	2058
78	0	0	2032
79	0	0	2048
80	0	0	2065
81	0	0	2072
82	0	0	2049
83	0	0	2042
84	0	0	2045
85	0	0	2063
86	0	0	2060
87	0	0	2051
88	0	0	2050
89	0	0	2065
90	0	0	2069
91	0	0	2063
92	0	0	2064
93	0	0	2077
94	0	0	2092
95	0	0	2104
96	0	0	2086
97	0	0	2074
98	0	0	2084
99	0	0	2080
100	0	0	2054
101	0	0	2046
102	0	0	2048
103	0	0	2061
104	0	0	2066
105	0	0	2070
106	0	0	2059
107	0	0	2082
108	0	0	2066
109	0	0	2032
110	0	0	2034
111	0	0	2060
112	0	0	2085
113	0	0	2080
114	0	0	2067
115	0	0	2083
116	0	0	2085
117	0	0	2075
118	0	0	2061
119	0	0	2062
120	0	0	2064
121	0	0	2056
122	0	0	2033
123	0	0	2057
124	0	0	2055
125	0	0	2051
126	0	0	2084
127	0	0	2112
0	0	0	2084
1	0	0	2054
2	0	0	2043
3	0	0	2040
4	0	0	2071
5	0	0	2078
6	0	0	2066
7	0	0	2070
8	0	0	2091
9	0	0	2078
10	0	0	2066
11	0	0	2048
12	0	0	2035
13	0	0	2041
14	0	0	2072
15	0	0	2064
16	0	0	2065
17	0	0	2092
18	0	0	2059
19	0	0	2073
20	0	0	2096
21	0	0	2073
22	0	0	2081
23	0	0	2052
24	0	0	2032
25	0	0	2053
26	0	0	2058
27	0	0	2080
28	0	0	2079
29	0	0	2059
30	0	0	2076
31	0	0	2071
32	0	0	2041
33	0	0	2068
34	0	0	2073
35	0	0	2087
36	0	0	2103
37	0	0	2092
38	0	0	2057
39	0	0	2030
40	0	0	2007
41	0	0	2009
42	0	0	2007
43	0	0	2048
44	0	0	2106
45	0	0	2110
46	0	0	2094
47	0	0	2148
48	0	0	2169
49	0	0	2136
50	0	0	2039
51	0	0	1999
52	0	0	2018
53	0	0	2051
54	0	0	2050
55	0	0	2032
56	0	0	2054
57	0	0	2071
58	0	0	2042
59	0	0	2070
60	0	0	2065
61	0	0	2059
62	0	0	2073
63	0	0	2057
64	0	0	2044
65	0	0	2031
66	0	0	2043
67	0	0	2066
68	0	0	2076
69	0	0	2105
70	0	0	2123
71	0	0	2100
72	0	0	2095
73	0	0	2061
74	0	0	2036
75	0	0	2075
76	0	0	2056
77	0	0	2041
78	0	0	2062
79	0	0	2050
80	0	0	2071
81	0	0	2055
82	0	0	2043
83	0	0	2053
84	0	0	2043
85	0	0	2060
86	0	0	2084
87	0	0	2114
88	0	0	2131
89	0	0	2100
90	0	0	2059
91	0	0	2044
92	0	0	2025
93	0	0	1993
94	0	0	2019
95	0	0	2052
96	0	0	2079
97	0	0	2102
98	0	0	2107
99	0	0	2114
100	0	0	2132
101	0	0	2064
102	0	0	2032
103	0	0	2044
104	0	0	2063
105	0	0	2062
106	0	0	2045
107	0	0	2020
108	0	0	2039
109	0	0	2066
110	0	0	2038
111	0	0	2068
112	0	0	2075
113	0	0	2092
114	0	0	2119
115	0	0	2092
116	0	0	2092
117	0	0	2060
118	0	0	2055
119	0	0	2044
120	0	0	2060
121	0	0	2041
122	0	0	2049
123	0	0	2056
124	0	0	2059
125	0	0	2046
126	0	0	2042
127	0	0	2067
0	0	0	2081
1	0	0	2111
2	0	0	2109
3	0	0	2091
4	0	0	2061
5	0	0	2079
6	0	0	2080
7	0	0	2035
8	0	0	2042
9	0	0	2052
10	0	0	2055
11	0	0	2061
12	0	0	2085
13	0	0	2064
14	0	0	2058
15	0	0	2053
16	0	0	2077
17	0	0	2080
18	0	0	2090
19	0	0	2072
20	0	0	2071
21	0	0	2076
22	0	0	2066
23	0	0	2032
24	0	0	2032
25	0	0	2055
26	0	0	2069
27	0	0	2060
28	0	0	2055
29	0	0	2065
30	0	0	2054
31	0	0	2083
32	0	0	2073
33	0	0	2040
34	0	0	2044
35	0	0	2079
36	0	0	2095
37	0	0	2109
38	0	0	2086
39	0	0	2049
40	0	0	2063
41	0	0	2086
42	0	0	2063
43	0	0	2040
44	0	0	2045
45	0	0	2050
46	0	0	2050
47	0	0	2065
48	0	0	2048
49	0	0	2037
50	0	0	2061
51	0	0	2071
52	0	0	2091
53	0	0	2096
54	0	0	2079
55	0	0	2089
56	0	0	2103
57	0	0	2137
58	0	0	2049
59	0	0	2045
60	0	0	2037
61	0	0	2026
62	0	0	2043
63	0	0	2055
64	0	0	2052
65	0	0	2054
66	0	0	2086
67	0	0	2079
68	0	0	2073
69	0	0	2042
70	0	0	2038
71	0	0	2025
72	0	0	2066
73	0	0	2081
74	0	0	2063
75	0	0	2069
76	0	0	2122
77	0	0	2082
78	0	0	2087
79	0	0	2100
80	0	0	2066
81	0	0	2037
82	0	0	2073
83	0	0	2080
84	0	0	2061
85	0	0	2033
86	0	0	2037
87	0	0	2043
88	0	0	2094
89	0	0	2057
90	0	0	2062
91	0	0	2082
92	0	0	2095
93	0	0	2066
94	0	0	1999
95	0	0	1992
96	0	0	2008
97	0	0	2074
98	0	0	2169
99	0	0	2143
100	0	0	2108
101	0	0	2064
102	0	0	2054
103	0	0	1985
104	0	0	2031
105	0	0	2012
106	0	0	2074
107	0	0	2153
108	0	0	2149
109	0	0	2061
110	0	0	2080
111	0	0	2127
112	0	0	2145
113	0	0	2045
114	0	0	2066
115	0	0	2048
116	0	0	2032
117	0	0	2046
118	0	0	2011
119	0	0	1976
120	0	0	1990
121	0	0	1980
122	0	0	2026
123	0	0	2087
124	0	0	2095
125	0	0	2115
126	0	0	2125
127	0	0	2188
0	0	0	2199
1	0	0	2124
2	0	0	2040
3	0	0	1939
4	0	0	1924
5	0	0	1939
6	0	0	2052
7	0	0	2117
8	0	0	2178
9	0	0	2147
10	0	0	2136
11	0	0	2071
12	0	0	2034
13	0	0	2011
14	0	0	2001
15	0	0	2007
16	0	0	2066
17	0	0	2126
18	0	0	2061
19	0	0	2085
20	0	0	2136
21	0	0	2066
22	0	0	1976
23	0	0	1978
24	0	0	2090
25	0	0	2190
26	0	0	2155
27	0	0	2033
28	0	0	1915
29	0	0	2002
30	0	0	2068
31	0	0	2123
32	0	0	2115
33	0	0	2083
34	0	0	2166
35	0	0	2208
36	0	0	1982
37	0	0	1907
38	0	0	1867
39	0	0	1920
40	0	0	2063
41	0	0	2121
42	0	0	2184
43	0	0	2248
44	0	0	2197
45	0	0	2178
46	0	0	2117
47	0	0	1966
48	0	0	1898
49	0	0	1949
50	0	0	2089
51	0	0	2157
52	0	0	2185
53	0	0	2181
54	0	0	2045
55	0	0	1945
56	0	0	1895
57	0	0	1942
58	0	0	1934
59	0	0	2029
60	0	0	2125
61	0	0	2220
62	0	0	2189
63	0	0	2182
64	0	0	2199
65	0	0	2149
66	0	0	1997
67	0	0	1953
68	0	0	1983
69	0	0	2035
70	0	0	2085
71	0	0	2066
72	0	0	2032
73	0	0	2015
74	0	0	2006
75	0	0	2020
76	0	0	2060
77	0	0	2094
78	0	0	2179
79	0	0	2143
80	0	0	2093
81	0	0	2087
82	0	0	2135
83	0	0	2105
84	0	0	2037
85	0	0	1977
86	0	0	2003
87	0	0	1978
88	0	0	1970
89	0	0	2062
90	0	0	2085
91	0	0	2118
92	0	0	2119
93	0	0	2078
94	0	0	2057
95	0	0	2045
96	0	0	2042
97	0	0	2025
98	0	0	2009
99	0	0	2035
100	0	0	2051
101	0	0	2132
102	0	0	2135
103	0	0	2123
104	0	0	2127
105	0	0	2063
106	0	0	2028
107	0	0	1999
108	0	0	2040
109	0	0	2031
110	0	0	2068
111	0	0	2073
112	0	0	2091
113	0	0	2106
114	0	0	2051
115	0	0	2043
116	0	0	2075
117	0	0	1956
118	0	0	1997
119	0	0	2110
120	0	0	2117
121	0	0	2155
122	0	0	2206
123	0	0	2245
124	0	0	2059
125	0	0	1970
126	0	0	1968
127	0	0	1979
0	0	0	2000
1	0	0	2006
2	0	0	2019
3	0	0	2005
4	0	0	2000
5	0	0	2080
6	0	0	2116
7	0	0	2093
8	0	0	2136
9	0	0	2113
10	0	0	2097
11	0	0	2067
12	0	0	2044
13	0	0	2058
14	0	0	2080
15	0	0	2032
16	0	0	2056
17	0	0	2046
18	0	0	2015
19	0	0	2026
20	0	0	2054
21	0	0	2093
22	0	0	2199
23	0	0	2120
24	0	0	2123
25	0	0	2117
26	0	0	2064
27	0	0	1993
28	0	0	1978
29	0	0	2048
30	0	0	2054
31	0	0	2084
32	0	0	2060
33	0	0	2126
34	0	0	2184
35	0	0	2077
36	0	0	1982
37	0	0	2028
38	0	0	2008
39	0	0	2046
40	0	0	2084
41	0	0	2048
42	0	0	2031
43	0	0	2025
44	0	0	1990
45	0	0	2010
46	0	0	2082
47	0	0	2150
48	0	0	2199
49	0	0	2189
50	0	0	2086
51	0	0	2019
52	0	0	1988
53	0	0	2051
54	0	0	2062
55	0	0	2081
56	0	0	2030
57	0	0	2021
58	0	0	2040
59	0	0	2060
60	0	0	2075
61	0	0	2095
62	0	0	2045
63	0	0	2062
64	0	0	2105
65	0	0	2086
66	0	0	2036
67	0	0	2049
68	0	0	2136
69	0	0	2074
70	0	0	2050
71	0	0	2078
72	0	0	2032
73	0	0	2018
74	0	0	2089
75	0	0	2128
76	0	0	2102
77	0	0	2074
78	0	0	2061
79	0	0	2085
80	0	0	1976
81	0	0	2038
82	0	0	2032
83	0	0	2062
84	0	0	2097
85	0	0	2120
86	0	0	2061
87	0	0	2074
88	0	0	2052
89	0	0	2078
90	0	0	2082
91	0	0	2046
92	0	0	2070
93	0	0	2035
94	0	0	2043
95	0	0	2050
96	0	0	2054
97	0	0	2071
98	0	0	2086
99	0	0	2100
100	0	0	2052
101	0	0	2073
102	0	0	2090
103	0	0	2000
104	0	0	1993
105	0	0	2056
106	0	0	2142
107	0	0	2177
108	0	0	2109
109	0	0	2066
110	0	0	2079
111	0	0	2050
112	0	0	2036
113	0	0	2074
114	0	0	2026
115	0	0	2059
116	0	0	2060
117	0	0	2064
118	0	0	2051
119	0	0	2061
120	0	0	2077
121	0	0	2063
122	0	0	2049
123	0	0	2051
124	0	0	2061
125	0	0	2062
126	0	0	2068
127	0	0	2075
0	0	0	2061
1	0	0	2101
2	0	0	2117
3	0	0	2096
4	0	0	2020
5	0	0	2021
6	0	0	2057
7	0	0	2059
8	0	0	2064
9	0	0	2053
10	0	0	2099
11	0	0	2097
12	0	0	2130
13	0	0	2054
14	0	0	2026
15	0	0	2044
16	0	0	2069
17	0	0	2063
18	0	0	2065
19	0	0	2073
20	0	0	2045
21	0	0	2059
22	0	0	2072
23	0	0	2070
24	0	0	2057
25	0	0	2075
26	0	0	2070
27	0	0	2067
28	0	0	2061
29	0	0	2061
30	0	0	2068
31	0	0	2070
32	0	0	2056
33	0	0	2050
34	0	0	2061
35	0	0	2056
36	0	0	2080
37	0	0	2106
38	0	0	2095
39	0	0	2078
40	0	0	2086
41	0	0	2048
42	0	0	2026
43	0	0	2027
44	0	0	2063
45	0	0	2088
46	0	0	2100
47	0	0	2093
48	0	0	2063
49	0	0	2062
50	0	0	2035
51	0	0	2044
52	0	0	2014
53	0	0	2080
54	0	0	2104
55	0	0	2113
56	0	0	2080
57	0	0	2060
58	0	0	2050
59	0	0	2042
60	0	0	2057
61	0	0	2081
62	0	0	2085
63	0	0	2083
64	0	0	2072
65	0	0	2046
66	0	0	2017
67	0	0	2002
68	0	0	2046
69	0	0	2090
70	0	0	2107
71	0	0	2119
72	0	0	2102
73	0	0	2086
74	0	0	2054
75	0	0	2104
76	0	0	2068
77	0	0	2048
78	0	0	2038
79	0	0	2023
80	0	0	2053
81	0	0	2058
82	0	0	2063
83	0	0	2058
84	0	0	2066
85	0	0	2046
86	0	0	2052
87	0	0	2039
88	0	0	2002
89	0	0	2015
90	0	0	2063
91	0	0	2146
92	0	0	2185
93	0	0	2222
94	0	0	2121
95	0	0	2081
96	0	0	2021
97	0	0	2010
98	0	0	2002
99	0	0	2033
100	0	0	2041
101	0	0	2050
102	0	0	2058
103	0	0	2059
104	0	0	2058
105	0	0	2063
106	0	0	2075
107	0	0	2067
108	0	0	2068
109	0	0	2069
110	0	0	2075
111	0	0	2063
112	0	0	2065
113	0	0	2070
114	0	0	2061
115	0	0	2056
116	0	0	2064
117	0	0	2073
118	0	0	2073
119	0	0	2084
120	0	0	2082
121	0	0	2069
122	0	0	2045
123	0	0	2038
124	0	0	2045
125	0	0	2058
126	0	0	2072
127	0	0	2080
0	0	0	2101
1	0	0	2083
2	0	0	2056
3	0	0	2058
4	0	0	2063
5	0	0	2069
6	0	0	2067
7	0	0	2060
8	0	0	2062
9	0	0	2079
10	0	0	2057
11	0	0	2073
12	0	0	2056
13	0	0	2063
14	0	0	2054
15	0	0	2065
16	0	0	2070
17	0	0	2062
18	0	0	2070
19	0	0	2063
20	0	0	2067
21	0	0	2078
22	0	0	2065
23	0	0	2053
24	0	0	2068
25	0	0	2070
26	0	0	2060
27	0	0	2056
28	0	0	2053
29	0	0	2068
30	0	0	2068
31	0	0	2054
32	0	0	2063
33	0	0	2046
34	0	0	2040
35	0	0	2048
36	0	0	2096
37	0	0	2119
38	0	0	2131
39	0	0	2099
40	0	0	2106
41	0	0	2081
42	0	0	2055
43	0	0	2044
44	0	0	2050
45	0	0	2024
46	0	0	2029
47	0	0	2040
48	0	0	2048
49	0	0	2060
50	0	0	2057
51	0	0	2064
52	0	0	2072
53	0	0	2085
54	0	0	2052
55	0	0	2062
56	0	0	2061
57	0	0	2062
58	0	0	2063
59	0	0	2063
60	0	0	2078
61	0	0	2061
62	0	0	2058
63	0	0	2063
64	0	0	2065
65	0	0	2072
66	0	0	2085
67	0	0	2082
68	0	0	2068
69	0	0	2048
70	0	0	2055
71	0	0	2065
72	0	0	2070
73	0	0	2069
74	0	0	2076
75	0	0	2046
76	0	0	2028
77	0	0	2062
78	0	0	2080
79	0	0	2091
80	0	0	2124
81	0	0	2104
82	0	0	2065
83	0	0	2056
84	0	0	2049
85	0	0	2041
86	0	0	2036
87	0	0	2030
88	0	0	2053
89	0	0	2065
90	0	0	2082
91	0	0	2090
92	0	0	2084
93	0	0	2078
94	0	0	2082
95	0	0	2075
96	0	0	2058
97	0	0	2044
98	0	0	2060
99	0	0	2043
100	0	0	2060
101	0	0	2063
102	0	0	2058
103	0	0	2064
104	0	0	2066
105	0	0	2068
106	0	0	2064
107	0	0	2061
108	0	0	2062
109	0	0	2068
110	0	0	2071
111	0	0	2064
112	0	0	2070
113	0	0	2063
114	0	0	2067
115	0	0	2068
116	0	0	2065
117	0	0	2066
118	0	0	2074
119	0	0	2086
120	0	0	2077
121	0	0	2071
122	0	0	2057
123	0	0	2074
124	0	0	2045
125	0	0	2051
126	0	0	2060
127	0	0	2069
0	0	0	2061
1	0	0	2056
2	0	0	2066
3	0	0	2069
4	0	0	2065
5	0	0	2075
6	0	0	2072
7	0	0	2082
8	0	0	2083
9	0	0	2061
10	0	0	2062
11	0	0	2091
12	0	0	2048
13	0	0	2049
14	0	0	2066
15	0	0	2074
16	0	0	2070
17	0	0	2054
18	0	0	2074
19	0	0	2067
20	0	0	2043
21	0	0	2050
22	0	0	2061
23	0	0	2056
24	0	0	2067
25	0	0	2079
26	0	0	2083
27	0	0	2072
28	0	0	2072
29	0	0	2084
30	0	0	2073
31	0	0	2063
32	0	0	2052
33	0	0	2040
34	0	0	2043
35	0	0	2062
36	0	0	2114
37	0	0	2095
38	0	0	2062
39	0	0	2063
40	0	0	2083
41	0	0	2064
42	0	0	2044
43	0	0	2044
44	0	0	2057
45	0	0	2045
46	0	0	2061
47	0	0	2048
48	0	0	2076
49	0	0	2085
50	0	0	2095
51	0	0	2085
52	0	0	2071
53	0	0	2031
54	0	0	2021
55	0	0	2035
56	0	0	2049
57	0	0	2099
58	0	0	2103
59	0	0	2105
60	0	0	2079
61	0	0	2080
62	0	0	2069
63	0	0	2035
64	0	0	2033
65	0	0	2062
66	0	0	2066
67	0	0	2080
68	0	0	2059
69	0	0	2052
70	0	0	2077
71	0	0	2072
72	0	0	2054
73	0	0	2052
74	0	0	2073
75	0	0	2069
76	0	0	2068
77	0	0	2076
78	0	0	2068
79	0	0	2061
80	0	0	2059
81	0	0	2060
82	0	0	2061
83	0	0	2063
84	0	0	2065
85	0	0	2060
86	0	0	2064
87	0	0	2076
88	0	0	2080
89	0	0	2085
90	0	0	2064
91	0	0	2064
92	0	0	2059
93	0	0	2069
94	0	0	2050
95	0	0	2065
96	0	0	2075
97	0	0	2070
98	0	0	2051
99	0	0	2052
100	0	0	2060
101	0	0	2076
102	0	0	2060
103	0	0	2068
104	0	0	2068
105	0	0	2073
106	0	0	2086
107	0	0	2060
108	0	0	2061
109	0	0	2060
110	0	0	2066
111	0	0	2059
112	0	0	2060
113	0	0	2072
114	0	0	2029
115	0	0	2038
116	0	0	2071
117	0	0	2094
118	0	0	2110
119	0	0	2119
120	0	0	2101
121	0	0	2084
122	0	0	2040
123	0	0	2019
124	0	0	2051
125	0	0	2035
126	0	0	2031
127	0	0	2051
0	0	0	2057
1	0	0	2079
2	0	0	2115
3	0	0	2091
4	0	0	2050
5	0	0	2071
6	0	0	2054
7	0	0	2030
8	0	0	2055
9	0	0	2053
10	0	0	2059
11	0	0	2066
12	0	0	2056
13	0	0	2062
14	0	0	2067
15	0	0	2078
16	0	0	2079
17	0	0	2082
18	0	0	2073
19	0	0	2056
20	0	0	2051
21	0	0	2061
22	0	0	2063
23	0	0	2065
24	0	0	2088
25	0	0	2069
26	0	0	2080
27	0	0	2055
28	0	0	2055
29	0	0	2055
30	0	0	2059
31	0	0	2050
32	0	0	2062
33	0	0	2074
34	0	0	2086
35	0	0	2074
36	0	0	2064
37	0	0	2076
38	0	0	2071
39	0	0	2059
40	0	0	2064
41	0	0	2056
42	0	0	2057
43	0	0	2062
44	0	0	2064
45	0	0	2060
46	0	0	2059
47	0	0	2056
48	0	0	2067
49	0	0	2075
50	0	0	2060
51	0	0	2050
52	0	0	2067
53	0	0	2057
54	0	0	2072
55	0	0	2082
56	0	0	2081
57	0	0	2063
58	0	0	2060
59	0	0	2089
60	0	0	2071
61	0	0	2088
62	0	0	2070
63	0	0	2074
64	0	0	2050
65	0	0	2048
66	0	0	2043
67	0	0	2065
68	0	0	2071
69	0	0	2067
70	0	0	2068
71	0	0	2066
72	0	0	2066
73	0	0	2082
74	0	0	2059
75	0	0	2060
76	0	0	2062
77	0	0	2063
78	0	0	2067
79	0	0	2054
80	0	0	2057
81	0	0	2063
82	0	0	2068
83	0	0	2071
84	0	0	2056
85	0	0	2060
86	0	0	2065
87	0	0	2077
88	0	0	2072
89	0	0	2067
90	0	0	2075
91	0	0	2071
92	0	0	2073
93	0	0	2060
94	0	0	2079
95	0	0	2060
96	0	0	2072
97	0	0	2079
98	0	0	2079
99	0	0	2044
100	0	0	2038
101	0	0	2052
102	0	0	2064
103	0	0	2069
104	0	0	2071
105	0	0	2068
106	0	0	2069
107	0	0	2068
108	0	0	2059
109	0	0	2062
110	0	0	2073
111	0	0	2041
112	0	0	2059
113	0	0	2056
114	0	0	2073
115	0	0	2060
116	0	0	2068
117	0	0	2099
118	0	0	2109
119	0	0	2073
120	0	0	2069
121	0	0	2064
122	0	0	2043
123	0	0	2048
124	0	0	2054
125	0	0	2054
126	0	0	2066
127	0	0	2069
0	0	0	2078
1	0	0	2083
2	0	0	2058
3	0	0	2074
4	0	0	2055
5	0	0	2059
6	0	0	2055
7	0	0	2066
8	0	0	2060
9	0	0	2054
10	0	0	2081
11	0	0	2079
12	0	0	2083
13	0	0	2049
14	0	0	2058
15	0	0	2046
16	0	0	2062
17	0	0	2089
18	0	0	2067
19	0	0	2069
20	0	0	2055
21	0	0	2059
22	0	0	2054
23	0	0	2059
24	0	0	2071
25	0	0	2075
26	0	0	2085
27	0	0	2081
28	0	0	2062
29	0	0	2070
30	0	0	2072
31	0	0	2067
32	0	0	2052
33	0	0	2059
34	0	0	2062
35	0	0	2069
36	0	0	2068
37	0	0	2066
38	0	0	2059
39	0	0	2053
40	0	0	2065
41	0	0	2077
42	0	0	2077
43	0	0	2081
44	0	0	2063
45	0	0	2055
46	0	0	2063
47	0	0	2064
48	0	0	2060
49	0	0	2073
50	0	0	2064
51	0	0	2044
52	0	0	2061
53	0	0	2062
54	0	0	2057
55	0	0	2073
56	0	0	2091
57	0	0	2067
58	0	0	2062
59	0	0	2062
60	0	0	2058
61	0	0	2075
62	0	0	2061
63	0	0	2076
64	0	0	2068
65	0	0	2053
66	0	0	2062
67	0	0	2069
68	0	0	2064
69	0	0	2068
70	0	0	2076
71	0	0	2073
72	0	0	2062
73	0	0	2067
74	0	0	2063
75	0	0	2057
76	0	0	2058
77	0	0	2063
78	0	0	2060
79	0	0	2078
80	0	0	2074
81	0	0	2087
82	0	0	2109
83	0	0	2089
84	0	0	2054
85	0	0	2053
86	0	0	2043
87	0	0	2045
88	0	0	2034
89	0	0	2054
90	0	0	2062
91	0	0	2064
92	0	0	2080
93	0	0	2081
94	0	0	2079
95	0	0	2073
96	0	0	2084
97	0	0	2049
98	0	0	2038
99	0	0	2073
100	0	0	2064
101	0	0	2073
102	0	0	2070
103	0	0	2074
104	0	0	2096
105	0	0	2055
106	0	0	2043
107	0	0	2057
108	0	0	2042
109	0	0	2059
110	0	0	2059
111	0	0	2058
112	0	0	2058
113	0	0	2093
114	0	0	2082
115	0	0	2084
116	0	0	2073
117	0	0	2055
118	0	0	2064
119	0	0	2085
120	0	0	2069
121	0	0	2053
122	0	0	2073
123	0	0	2059
124	0	0	2044
125	0	0	2045
126	0	0	2056
127	0	0	2072
0	0	0	2078
1	0	0	2073
2	0	0	2080
3	0	0	2072
4	0	0	2071
5	0	0	2073
6	0	0	2082
7	0	0	2052
8	0	0	2037
9	0	0	2061
10	0	0	2042
11	0	0	2050
12	0	0	2097
13	0	0	2054
14	0	0	2075
15	0	0	2085
16	0	0	2071
17	0	0	2083
18	0	0	2064
19	0	0	2058
20	0	0	2052
21	0	0	2057
22	0	0	2060
23	0	0	2071
24	0	0	2072
25	0	0	2071
26	0	0	2063
27	0	0	2090
28	0	0	2081
29	0	0	2043
30	0	0	2060
31	0	0	2073
32	0	0	2080
33	0	0	2058
34	0	0	2055
35	0	0	2066
36	0	0	2063
37	0	0	2075
38	0	0	2068
39	0	0	2068
40	0	0	2082
41	0	0	2050
42	0	0	2045
43	0	0	2038
44	0	0	2042
45	0	0	2059
46	0	0	2058
47	0	0	2071
48	0	0	2083
49	0	0	2087
50	0	0	2072
51	0	0	2063
52	0	0	2091
53	0	0	2073
54	0	0	2043
55	0	0	2030
56	0	0	2045
57	0	0	2051
58	0	0	2063
59	0	0	2079
60	0	0	2076
61	0	0	2072
62	0	0	2090
63	0	0	2086
64	0	0	2081
65	0	0	2056
66	0	0	2055
67	0	0	2057
68	0	0	2064
69	0	0	2080
70	0	0	2091
71	0	0	2069
72	0	0	2045
73	0	0	2051
74	0	0	2022
75	0	0	2048
76	0	0	2071
77	0	0	2057
78	0	0	2061
79	0	0	2069
80	0	0	2096
81	0	0	2104
82	0	0	2073
83	0	0	2056
84	0	0	2045
85	0	0	2060
86	0	0	2067
87	0	0	2072
88	0	0	2067
89	0	0	2073
90	0	0	2055
91	0	0	2048
92	0	0	2061
93	0	0	2060
94	0	0	2062
95	0	0	2046
96	0	0	2040
97	0	0	2072
98	0	0	2110
99	0	0	2115
100	0	0	2086
101	0	0	2102
102	0	0	2072
103	0	0	2063
104	0	0	2073
105	0	0	2054
106	0	0	2051
107	0	0	2040
108	0	0	2038
109	0	0	2034
110	0	0	2042
111	0	0	2071
112	0	0	2086
113	0	0	2073
114	0	0	2081
115	0	0	2093
116	0	0	2070
117	0	0	2050
118	0	0	2048
119	0	0	2035
120	0	0	2050
121	0	0	2052
122	0	0	2040
123	0	0	2075
124	0	0	2096
125	0	0	2095
126	0	0	2106
127	0	0	2097
0	0	0	2056
1	0	0	2045
2	0	0	2062
3	0	0	2067
4	0	0	2071
5	0	0	2063
6	0	0	2061
7	0	0	2035
8	0	0	2049
9	0	0	2055
10	0	0	2048
11	0	0	2040
12	0	0	2091
13	0	0	2098
14	0	0	2054
15	0	0	2069
16	0	0	2069
17	0	0	2082
18	0	0	2080
19	0	0	2054
20	0	0	2061
21	0	0	2061
22	0	0	2076
23	0	0	2066
24	0	0	2051
25	0	0	2068
26	0	0	2092
27	0	0	2068
28	0	0	2049
29	0	0	2060
30	0	0	2056
31	0	0	2057
32	0	0	2065
33	0	0	2068
34	0	0	2071
35	0	0	2070
36	0	0	2070
37	0	0	2079
38	0	0	2073
39	0	0	2074
40	0	0	2024
41	0	0	2027
42	0	0	2087
43	0	0	2066
44	0	0	2077
45	0	0	2088
46	0	0	2073
47	0	0	2074
48	0	0	2063
49	0	0	2053
50	0	0	2031
51	0	0	2038
52	0	0	2060
53	0	0	2065
54	0	0	2067
55	0	0	2080
56	0	0	2056
57	0	0	2106
58	0	0	2092
59	0	0	2093
60	0	0	2064
61	0	0	2031
62	0	0	2048
63	0	0	2060
64	0	0	2048
65	0	0	2042
66	0	0	2066
67	0	0	2078
68	0	0	2092
69	0	0	2082
70	0	0	2055
71	0	0	2048
72	0	0	2067
73	0	0	2092
74	0	0	2108
75	0	0	2079
76	0	0	2052
77	0	0	2064
78	0	0	2030
79	0	0	2033
80	0	0	2037
81	0	0	2053
82	0	0	2061
83	0	0	2075
84	0	0	2113
85	0	0	2108
86	0	0	2100
87	0	0	2106
88	0	0	2068
89	0	0	2029
90	0	0	2034
91	0	0	2045
92	0	0	2050
93	0	0	2056
94	0	0	2065
95	0	0	2061
96	0	0	2040
97	0	0	2048
98	0	0	2066
99	0	0	2093
100	0	0	2093
101	0	0	2092
102	0	0	2092
103	0	0	2031
104	0	0	2036
105	0	0	2045
106	0	0	2026
107	0	0	2037
108	0	0	2046
109	0	0	2063
110	0	0	2085
111	0	0	2104
112	0	0	2164
113	0	0	2168
114	0	0	2109
115	0	0	2062
116	0	0	2014
117	0	0	2035
118	0	0	2044
119	0	0	2050
120	0	0	2053
121	0	0	2046
122	0	0	2029
123	0	0	2043
124	0	0	2039
125	0	0	2034
126	0	0	2073
127	0	0	2075
0	0	0	2067
1	0	0	2063
2	0	0	2068
3	0	0	2138
4	0	0	2122
5	0	0	2094
6	0	0	2093
7	0	0	2039
8	0	0	2041
9	0	0	2038
10	0	0	2038
11	0	0	2034
12	0	0	2049
13	0	0	2046
14	0	0	2050
15	0	0	2063
16	0	0	2066
17	0	0	2066
18	0	0	2086
19	0	0	2068
20	0	0	2119
21	0	0	2108
22	0	0	2085
23	0	0	2073
24	0	0	2059
25	0	0	2083
26	0	0	2057
27	0	0	2053
28	0	0	2038
29	0	0	2032
30	0	0	2049
31	0	0	2053
32	0	0	2081
33	0	0	2086
34	0	0	2075
35	0	0	2066
36	0	0	2066
37	0	0	2062
38	0	0	2066
39	0	0	2055
40	0	0	2060
41	0	0	2073
42	0	0	2052
43	0	0	2055
44	0	0	2060
45	0	0	2061
46	0	0	2081
47	0	0	2080
48	0	0	2041
49	0	0	2048
50	0	0	2072
51	0	0	2061
52	0	0	2075
53	0	0	2084
54	0	0	2058
55	0	0	2063
56	0	0	2091
57	0	0	2030
58	0	0	2026
59	0	0	2074
60	0	0	2079
61	0	0	2105
62	0	0	2118
63	0	0	2091
64	0	0	2109
65	0	0	2128
66	0	0	2062
67	0	0	2029
68	0	0	2009
69	0	0	2037
70	0	0	2080
71	0	0	2045
72	0	0	2079
73	0	0	2072
74	0	0	2030
75	0	0	2016
76	0	0	2045
77	0	0	2061
78	0	0	2032
79	0	0	2043
80	0	0	2083
81	0	0	2102
82	0	0	2085
83	0	0	2112
84	0	0	2057
85	0	0	2033
86	0	0	2054
87	0	0	2076
88	0	0	2024
89	0	0	2007
90	0	0	2076
91	0	0	2140
92	0	0	2177
93	0	0	2120
94	0	0	2036
95	0	0	2064
96	0	0	2095
97	0	0	2008
98	0	0	2016
99	0	0	2101
100	0	0	2164
101	0	0	2107
102	0	0	2089
103	0	0	2013
104	0	0	1970
105	0	0	2006
106	0	0	2030
107	0	0	2054
108	0	0	2087
109	0	0	2085
110	0	0	2082
111	0	0	2056
112	0	0	2018
113	0	0	1989
114	0	0	1990
115	0	0	2011
116	0	0	2050
117	0	0	2091
118	0	0	2145
119	0	0	2134
120	0	0	2123
121	0	0	2127
122	0	0	2069
123	0	0	2045
124	0	0	2094
125	0	0	2085
126	0	0	2023
127	0	0	2048
0	0	0	2059
1	0	0	2046
2	0	0	2115
3	0	0	2164
4	0	0	2125
5	0	0	2060
6	0	0	1984
7	0	0	1960
8	0	0	2008
9	0	0	1998
10	0	0	1965
11	0	0	2070
12	0	0	2142
13	0	0	2208
14	0	0	2160
15	0	0	2076
16	0	0	2095
17	0	0	2110
18	0	0	2022
19	0	0	1997
20	0	0	1942
21	0	0	1998
22	0	0	2071
23	0	0	2146
24	0	0	2135
25	0	0	2089
26	0	0	2071
27	0	0	2058
28	0	0	2057
29	0	0	1908
30	0	0	1979
31	0	0	2093
32	0	0	2102
33	0	0	2145
34	0	0	2232
35	0	0	2237
36	0	0	2207
37	0	0	2082
38	0	0	1955
39	0	0	1863
40	0	0	1858
41	0	0	1958
42	0	0	2021
43	0	0	2044
44	0	0	2113
45	0	0	2179
46	0	0	2193
47	0	0	2158
48	0	0	2086
49	0	0	2091
50	0	0	2171
51	0	0	1965
52	0	0	1947
53	0	0	1979
54	0	0	1959
55	0	0	1963
56	0	0	2113
57	0	0	2240
58	0	0	2260
59	0	0	2097
60	0	0	2050
61	0	0	2109
62	0	0	2113
63	0	0	1969
64	0	0	2024
65	0	0	1987
66	0	0	1889
67	0	0	1936
68	0	0	2008
69	0	0	2099
70	0	0	2213
71	0	0	2267
72	0	0	2162
73	0	0	2026
74	0	0	1964
75	0	0	2033
76	0	0	2143
77	0	0	2184
78	0	0	2194
79	0	0	2104
80	0	0	1990
81	0	0	1947
82	0	0	1948
83	0	0	1987
84	0	0	2117
85	0	0	2142
86	0	0	2077
87	0	0	1967
88	0	0	1867
89	0	0	1871
90	0	0	2010
91	0	0	2102
92	0	0	2193
93	0	0	2318
94	0	0	2356
95	0	0	2233
96	0	0	2116
97	0	0	1932
98	0	0	1804
99	0	0	1851
100	0	0	2002
101	0	0	2104
102	0	0	2148
103	0	0	2175
104	0	0	2165
105	0	0	2083
106	0	0	1988
107	0	0	1972
108	0	0	2013
109	0	0	2025
110	0	0	2046
111	0	0	2031
112	0	0	1984
113	0	0	1994
114	0	0	2072
115	0	0	2101
116	0	0	2158
117	0	0	2175
118	0	0	2107
119	0	0	1964
120	0	0	1997
121	0	0	2121
122	0	0	2153
123	0	0	2179
124	0	0	2184
125	0	0	2071
126	0	0	1996
127	0	0	1932
0	0	0	1960
1	0	0	2022
2	0	0	2119
3	0	0	2091
4	0	0	2061
5	0	0	2038
6	0	0	2054
7	0	0	2077
8	0	0	2106
9	0	0	2074
10	0	0	2045
11	0	0	2020
12	0	0	2051
13	0	0	2079
14	0	0	2192
15	0	0	2147
16	0	0	2032
17	0	0	2000
18	0	0	2009
19	0	0	2013
20	0	0	1953
21	0	0	1978
22	0	0	2062
23	0	0	2076
24	0	0	2109
25	0	0	2158
26	0	0	2253
27	0	0	2132
28	0	0	2100
29	0	0	2064
30	0	0	2021
31	0	0	1942
32	0	0	2000
33	0	0	2091
34	0	0	2145
35	0	0	2101
36	0	0	2053
37	0	0	2043
38	0	0	2009
39	0	0	2014
40	0	0	2027
41	0	0	2022
42	0	0	2021
43	0	0	2049
44	0	0	2083
45	0	0	2120
46	0	0	2151
47	0	0	2130
48	0	0	2032
49	0	0	1992
50	0	0	1958
51	0	0	2013
52	0	0	2146
53	0	0	2147
54	0	0	2208
55	0	0	2279
56	0	0	2071
57	0	0	1972
58	0	0	2014
59	0	0	2029
60	0	0	1969
61	0	0	1969
62	0	0	2031
63	0	0	2116
64	0	0	2227
65	0	0	2176
66	0	0	2138
67	0	0	2064
68	0	0	2021
69	0	0	1950
70	0	0	1982
71	0	0	2011
72	0	0	2019
73	0	0	2036
74	0	0	2042
75	0	0	2062
76	0	0	2107
77	0	0	2075
78	0	0	2066
79	0	0	2084
80	0	0	2096
81	0	0	2104
82	0	0	2096
83	0	0	2084
84	0	0	2055
85	0	0	2041
86	0	0	2065
87	0	0	2091
88	0	0	2053
89	0	0	2062
90	0	0	2010
91	0	0	2017
92	0	0	2033
93	0	0	2060
94	0	0	2121
95	0	0	2134
96	0	0	2087
97	0	0	2048
98	0	0	2053
99	0	0	2051
100	0	0	2049
101	0	0	2114
102	0	0	2128
103	0	0	2027
104	0	0	1931
105	0	0	1976
106	0	0	2066
107	0	0	2162
108	0	0	2232
109	0	0	2198
110	0	0	2078
111	0	0	2096
112	0	0	1997
113	0	0	1962
114	0	0	2021
115	0	0	2038
116	0	0	2038
117	0	0	2052
118	0	0	2041
119	0	0	2033
120	0	0	2056
121	0	0	2076
122	0	0	2071
123	0	0	2108
124	0	0	2108
125	0	0	2045
126	0	0	2102
127	0	0	2110
0	0	0	2069
1	0	0	2030
2	0	0	2019
3	0	0	2032
4	0	0	2084
5	0	0	2080
6	0	0	2068
7	0	0	2059
8	0	0	2078
9	0	0	2078
10	0	0	2062
11	0	0	2073
12	0	0	2032
13	0	0	2046
14	0	0	2054
15	0	0	2070
16	0	0	2091
17	0	0	2079
18	0	0	2072
19	0	0	2056
20	0	0	2032
21	0	0	2057
22	0	0	2101
23	0	0	2070
24	0	0	2057
25	0	0	2073
26	0	0	2061
27	0	0	2045
28	0	0	2075
