# bioPlux Text File Format
# Version: 1
# StartDateTime: 2018-08-23 11:18:41
# SamplingFrequency: 1000
# SampledChannels: 5
# SamplingResolution: 12
# AcquiringDevice: 00:07:80:40:DD:D2
# EndOfHeader
0	0	0	2065
1	0	0	2075
2	0	0	2065
3	0	0	2064
4	0	0	2067
5	0	0	2065
6	0	0	2068
7	0	0	2069
8	0	0	2064
9	0	0	2057
10	0	0	2066
11	0	0	2069
12	0	0	2066
13	0	0	2064
14	0	0	2063
15	0	0	2062
16	0	0	2062
17	0	0	2063
18	0	0	2063
19	0	0	2063
20	0	0	2073
21	0	0	2071
22	0	0	2066
23	0	0	2066
24	0	0	2062
25	0	0	2067
26	0	0	2063
27	0	0	2063
28	0	0	2066
29	0	0	2065
30	0	0	2062
31	0	0	2066
32	0	0	2082
33	0	0	2074
34	0	0	2062
35	0	0	2061
36	0	0	2065
37	0	0	2064
38	0	0	2065
39	0	0	2069
40	0	0	2062
41	0	0	2063
42	0	0	2063
43	0	0	2064
44	0	0	2070
45	0	0	2062
46	0	0	2070
47	0	0	2076
48	0	0	2063
49	0	0	2064
50	0	0	2058
51	0	0	2073
52	0	0	2064
53	0	0	2064
54	0	0	2064
55	0	0	2061
56	0	0	2063
57	0	0	2073
58	0	0	2070
59	0	0	2058
60	0	0	2067
61	0	0	2066
62	0	0	2067
63	0	0	2063
64	0	0	2074
65	0	0	2065
66	0	0	2061
67	0	0	2066
68	0	0	2063
69	0	0	2067
70	0	0	2063
71	0	0	2067
72	0	0	2062
73	0	0	2063
74	0	0	2074
75	0	0	2060
76	0	0	2066
77	0	0	2074
78	0	0	2065
79	0	0	2066
80	0	0	2063
81	0	0	2067
82	0	0	2067
83	0	0	2062
84	0	0	2060
85	0	0	2061
86	0	0	2067
87	0	0	2078
88	0	0	2071
89	0	0	2060
90	0	0	2074
91	0	0	2054
92	0	0	2059
93	0	0	2067
94	0	0	2064
95	0	0	2060
96	0	0	2063
97	0	0	2074
98	0	0	2072
99	0	0	2060
100	0	0	2058
101	0	0	2068
102	0	0	2068
103	0	0	2061
104	0	0	2082
105	0	0	2062
106	0	0	2060
107	0	0	2070
108	0	0	2062
109	0	0	2054
110	0	0	2072
111	0	0	2068
112	0	0	2068
113	0	0	2064
114	0	0	2062
115	0	0	2064
116	0	0	2078
117	0	0	2071
118	0	0	2058
119	0	0	2062
120	0	0	2059
121	0	0	2060
122	0	0	2069
123	0	0	2079
124	0	0	2062
125	0	0	2060
126	0	0	2067
127	0	0	2068
0	0	0	2062
1	0	0	2060
2	0	0	2073
3	0	0	2068
4	0	0	2064
5	0	0	2069
6	0	0	2063
7	0	0	2069
8	0	0	2068
9	0	0	2060
10	0	0	2071
11	0	0	2066
12	0	0	2064
13	0	0	2064
14	0	0	2062
15	0	0	2070
16	0	0	2067
17	0	0	2062
18	0	0	2065
19	0	0	2068
20	0	0	2069
21	0	0	2069
22	0	0	2068
23	0	0	2066
24	0	0	2064
25	0	0	2060
26	0	0	2061
27	0	0	2059
28	0	0	2067
29	0	0	2068
30	0	0	2069
31	0	0	2062
32	0	0	2064
33	0	0	2070
34	0	0	2077
35	0	0	2073
36	0	0	2062
37	0	0	2060
38	0	0	2069
39	0	0	2068
40	0	0	2064
41	0	0	2062
42	0	0	2066
43	0	0	2062
44	0	0	2067
45	0	0	2065
46	0	0	2074
47	0	0	2063
48	0	0	2067
49	0	0	2066
50	0	0	2066
51	0	0	2063
52	0	0	2064
53	0	0	2065
54	0	0	2065
55	0	0	2061
56	0	0	2070
57	0	0	2075
58	0	0	2075
59	0	0	2067
60	0	0	2065
61	0	0	2083
62	0	0	2056
63	0	0	2057
64	0	0	2054
65	0	0	2068
66	0	0	2066
67	0	0	2071
68	0	0	2062
69	0	0	2064
70	0	0	2069
71	0	0	2065
72	0	0	2060
73	0	0	2065
74	0	0	2071
75	0	0	2067
76	0	0	2067
77	0	0	2061
78	0	0	2066
79	0	0	2067
80	0	0	2067
81	0	0	2067
82	0	0	2064
83	0	0	2065
84	0	0	2064
85	0	0	2064
86	0	0	2063
87	0	0	2065
88	0	0	2070
89	0	0	2071
90	0	0	2063
91	0	0	2067
92	0	0	2067
93	0	0	2061
94	0	0	2063
95	0	0	2060
96	0	0	2069
97	0	0	2068
98	0	0	2059
99	0	0	2073
100	0	0	2070
101	0	0	2062
102	0	0	2067
103	0	0	2064
104	0	0	2065
105	0	0	2068
106	0	0	2063
107	0	0	2063
108	0	0	2064
109	0	0	2058
110	0	0	2066
111	0	0	2070
112	0	0	2063
113	0	0	2081
114	0	0	2058
115	0	0	2056
116	0	0	2068
117	0	0	2064
118	0	0	2069
119	0	0	2064
120	0	0	2059
121	0	0	2058
122	0	0	2061
123	0	0	2071
124	0	0	2060
125	0	0	2071
126	0	0	2068
127	0	0	2059
0	0	0	2069
1	0	0	2064
2	0	0	2066
3	0	0	2073
4	0	0	2064
5	0	0	2066
6	0	0	2063
7	0	0	2065
8	0	0	2063
9	0	0	2068
10	0	0	2067
11	0	0	2060
12	0	0	2064
13	0	0	2068
14	0	0	2064
15	0	0	2062
16	0	0	2067
17	0	0	2056
18	0	0	2055
19	0	0	2064
20	0	0	2103
21	0	0	2065
22	0	0	2050
23	0	0	2061
24	0	0	2072
25	0	0	2063
26	0	0	2063
27	0	0	2067
28	0	0	2067
29	0	0	2066
30	0	0	2064
31	0	0	2068
32	0	0	2062
33	0	0	2062
34	0	0	2062
35	0	0	2066
36	0	0	2075
37	0	0	2069
38	0	0	2063
39	0	0	2064
40	0	0	2053
41	0	0	2061
42	0	0	2067
43	0	0	2068
44	0	0	2070
45	0	0	2064
46	0	0	2066
47	0	0	2061
48	0	0	2075
49	0	0	2060
50	0	0	2064
51	0	0	2064
52	0	0	2074
53	0	0	2068
54	0	0	2065
55	0	0	2066
56	0	0	2069
57	0	0	2063
58	0	0	2062
59	0	0	2066
60	0	0	2071
61	0	0	2079
62	0	0	2061
63	0	0	2060
64	0	0	2062
65	0	0	2071
66	0	0	2070
67	0	0	2061
68	0	0	2059
69	0	0	2064
70	0	0	2067
71	0	0	2073
72	0	0	2067
73	0	0	2058
74	0	0	2065
75	0	0	2071
76	0	0	2074
77	0	0	2059
78	0	0	2062
79	0	0	2058
80	0	0	2060
81	0	0	2073
82	0	0	2067
83	0	0	2067
84	0	0	2066
85	0	0	2067
86	0	0	2068
87	0	0	2069
88	0	0	2066
89	0	0	2065
90	0	0	2066
91	0	0	2076
92	0	0	2070
93	0	0	2044
94	0	0	2057
95	0	0	2073
96	0	0	2090
97	0	0	2061
98	0	0	2063
99	0	0	2064
100	0	0	2065
101	0	0	2073
102	0	0	2059
103	0	0	2074
104	0	0	2054
105	0	0	2061
106	0	0	2062
107	0	0	2059
108	0	0	2054
109	0	0	2073
110	0	0	2085
111	0	0	2066
112	0	0	2064
113	0	0	2059
114	0	0	2065
115	0	0	2071
116	0	0	2062
117	0	0	2061
118	0	0	2062
119	0	0	2073
120	0	0	2068
121	0	0	2064
122	0	0	2069
123	0	0	2063
124	0	0	2066
125	0	0	2063
126	0	0	2059
127	0	0	2066
0	0	0	2066
1	0	0	2073
2	0	0	2075
3	0	0	2062
4	0	0	2060
5	0	0	2063
6	0	0	2061
7	0	0	2066
8	0	0	2089
9	0	0	2064
10	0	0	2057
11	0	0	2064
12	0	0	2066
13	0	0	2064
14	0	0	2066
15	0	0	2065
16	0	0	2069
17	0	0	2067
18	0	0	2069
19	0	0	2064
20	0	0	2073
21	0	0	2059
22	0	0	2059
23	0	0	2068
24	0	0	2069
25	0	0	2067
26	0	0	2067
27	0	0	2064
28	0	0	2062
29	0	0	2062
30	0	0	2067
31	0	0	2072
32	0	0	2070
33	0	0	2063
34	0	0	2066
35	0	0	2065
36	0	0	2066
37	0	0	2062
38	0	0	2066
39	0	0	2069
40	0	0	2072
41	0	0	2062
42	0	0	2065
43	0	0	2064
44	0	0	2062
45	0	0	2068
46	0	0	2065
47	0	0	2064
48	0	0	2068
49	0	0	2064
50	0	0	2062
51	0	0	2069
52	0	0	2059
53	0	0	2070
54	0	0	2065
55	0	0	2059
56	0	0	2064
57	0	0	2065
58	0	0	2069
59	0	0	2063
60	0	0	2072
61	0	0	2057
62	0	0	2065
63	0	0	2062
64	0	0	2065
65	0	0	2063
66	0	0	2059
67	0	0	2069
68	0	0	2067
69	0	0	2070
70	0	0	2071
71	0	0	2064
72	0	0	2065
73	0	0	2062
74	0	0	2069
75	0	0	2069
76	0	0	2061
77	0	0	2063
78	0	0	2069
79	0	0	2053
80	0	0	2075
81	0	0	2056
82	0	0	2061
83	0	0	2067
84	0	0	2078
85	0	0	2066
86	0	0	2064
87	0	0	2059
88	0	0	2068
89	0	0	2065
90	0	0	2072
91	0	0	2063
92	0	0	2068
93	0	0	2063
94	0	0	2063
95	0	0	2065
96	0	0	2060
97	0	0	2063
98	0	0	2066
99	0	0	2070
100	0	0	2067
101	0	0	2061
102	0	0	2061
103	0	0	2063
104	0	0	2066
105	0	0	2067
106	0	0	2069
107	0	0	2064
108	0	0	2063
109	0	0	2072
110	0	0	2066
111	0	0	2068
112	0	0	2062
113	0	0	2055
114	0	0	2067
115	0	0	2082
116	0	0	2058
117	0	0	2062
118	0	0	2063
119	0	0	2064
120	0	0	2069
121	0	0	2061
122	0	0	2068
123	0	0	2059
124	0	0	2059
125	0	0	2070
126	0	0	2063
127	0	0	2066
0	0	0	2068
1	0	0	2066
2	0	0	2065
3	0	0	2062
4	0	0	2066
5	0	0	2064
6	0	0	2068
7	0	0	2064
8	0	0	2071
9	0	0	2063
10	0	0	2061
11	0	0	2067
12	0	0	2071
13	0	0	2065
14	0	0	2065
15	0	0	2066
16	0	0	2064
17	0	0	2065
18	0	0	2061
19	0	0	2066
20	0	0	2067
21	0	0	2061
22	0	0	2065
23	0	0	2061
24	0	0	2066
25	0	0	2067
26	0	0	2062
27	0	0	2069
28	0	0	2064
29	0	0	2076
30	0	0	2060
31	0	0	2064
32	0	0	2072
33	0	0	2062
34	0	0	2068
35	0	0	2064
36	0	0	2060
37	0	0	2064
38	0	0	2061
39	0	0	2062
40	0	0	2066
41	0	0	2068
42	0	0	2061
43	0	0	2065
44	0	0	2066
45	0	0	2085
46	0	0	2069
47	0	0	2075
48	0	0	2064
49	0	0	2062
50	0	0	2058
51	0	0	2068
52	0	0	2063
53	0	0	2061
54	0	0	2069
55	0	0	2064
56	0	0	2057
57	0	0	2066
58	0	0	2074
59	0	0	2068
60	0	0	2064
61	0	0	2067
62	0	0	2069
63	0	0	2064
64	0	0	2057
65	0	0	2056
66	0	0	2070
67	0	0	2075
68	0	0	2072
69	0	0	2064
70	0	0	2066
71	0	0	2065
72	0	0	2067
73	0	0	2060
74	0	0	2060
75	0	0	2052
76	0	0	2059
77	0	0	2087
78	0	0	2072
79	0	0	2059
80	0	0	2063
81	0	0	2067
82	0	0	2069
83	0	0	2067
84	0	0	2066
85	0	0	2067
86	0	0	2066
87	0	0	2067
88	0	0	2062
89	0	0	2063
90	0	0	2060
91	0	0	2064
92	0	0	2066
93	0	0	2067
94	0	0	2067
95	0	0	2071
96	0	0	2067
97	0	0	2064
98	0	0	2064
99	0	0	2063
100	0	0	2067
101	0	0	2068
102	0	0	2065
103	0	0	2067
104	0	0	2065
105	0	0	2064
106	0	0	2068
107	0	0	2068
108	0	0	2068
109	0	0	2066
110	0	0	2051
111	0	0	2065
112	0	0	2067
113	0	0	2069
114	0	0	2072
115	0	0	2061
116	0	0	2063
117	0	0	2065
118	0	0	2071
119	0	0	2066
120	0	0	2066
121	0	0	2064
122	0	0	2064
123	0	0	2066
124	0	0	2065
125	0	0	2069
126	0	0	2065
127	0	0	2062
0	0	0	2065
1	0	0	2068
2	0	0	2066
3	0	0	2066
4	0	0	2062
5	0	0	2062
6	0	0	2068
7	0	0	2063
8	0	0	2065
9	0	0	2068
10	0	0	2066
11	0	0	2072
12	0	0	2063
13	0	0	2059
14	0	0	2061
15	0	0	2076
16	0	0	2072
17	0	0	2062
18	0	0	2056
19	0	0	2059
20	0	0	2071
21	0	0	2096
22	0	0	2061
23	0	0	2061
24	0	0	2064
25	0	0	2066
26	0	0	2060
27	0	0	2068
28	0	0	2060
29	0	0	2064
30	0	0	2062
31	0	0	2064
32	0	0	2066
33	0	0	2059
34	0	0	2077
35	0	0	2081
36	0	0	2062
37	0	0	2059
38	0	0	2065
39	0	0	2070
40	0	0	2067
41	0	0	2064
42	0	0	2061
43	0	0	2064
44	0	0	2065
45	0	0	2065
46	0	0	2063
47	0	0	2064
48	0	0	2072
49	0	0	2059
50	0	0	2079
51	0	0	2064
52	0	0	2061
53	0	0	2071
54	0	0	2064
55	0	0	2066
56	0	0	2060
57	0	0	2063
58	0	0	2065
59	0	0	2065
60	0	0	2067
61	0	0	2063
62	0	0	2066
63	0	0	2069
64	0	0	2063
65	0	0	2066
66	0	0	2063
67	0	0	2067
68	0	0	2063
69	0	0	2071
70	0	0	2066
71	0	0	2066
72	0	0	2063
73	0	0	2063
74	0	0	2066
75	0	0	2064
76	0	0	2065
77	0	0	2063
78	0	0	2061
79	0	0	2078
80	0	0	2069
81	0	0	2068
82	0	0	2048
83	0	0	2060
84	0	0	2077
85	0	0	2085
86	0	0	2057
87	0	0	2057
88	0	0	2077
89	0	0	2065
90	0	0	2063
91	0	0	2069
92	0	0	2069
93	0	0	2070
94	0	0	2069
95	0	0	2064
96	0	0	2057
97	0	0	2054
98	0	0	2063
99	0	0	2068
100	0	0	2073
101	0	0	2069
102	0	0	2063
103	0	0	2064
104	0	0	2062
105	0	0	2068
106	0	0	2070
107	0	0	2074
108	0	0	2060
109	0	0	2061
110	0	0	2065
111	0	0	2077
112	0	0	2066
113	0	0	2073
114	0	0	2061
115	0	0	2058
116	0	0	2067
117	0	0	2065
118	0	0	2069
119	0	0	2067
120	0	0	2065
121	0	0	2064
122	0	0	2057
123	0	0	2068
124	0	0	2070
125	0	0	2068
126	0	0	2061
127	0	0	2053
0	0	0	2060
1	0	0	2062
2	0	0	2076
3	0	0	2066
4	0	0	2065
5	0	0	2066
6	0	0	2071
7	0	0	2071
8	0	0	2060
9	0	0	2064
10	0	0	2061
11	0	0	2066
12	0	0	2079
13	0	0	2065
14	0	0	2056
15	0	0	2058
16	0	0	2071
17	0	0	2071
18	0	0	2064
19	0	0	2065
20	0	0	2063
21	0	0	2057
22	0	0	2062
23	0	0	2083
24	0	0	2074
25	0	0	2068
26	0	0	2062
27	0	0	2057
28	0	0	2062
29	0	0	2062
30	0	0	2072
31	0	0	2066
32	0	0	2065
33	0	0	2059
34	0	0	2067
35	0	0	2066
36	0	0	2067
37	0	0	2062
38	0	0	2062
39	0	0	2062
40	0	0	2063
41	0	0	2069
42	0	0	2060
43	0	0	2059
44	0	0	2062
45	0	0	2067
46	0	0	2081
47	0	0	2075
48	0	0	2063
49	0	0	2063
50	0	0	2059
51	0	0	2065
52	0	0	2069
53	0	0	2069
54	0	0	2067
55	0	0	2062
56	0	0	2066
57	0	0	2062
58	0	0	2068
59	0	0	2064
60	0	0	2065
61	0	0	2066
62	0	0	2065
63	0	0	2064
64	0	0	2071
65	0	0	2072
66	0	0	2067
67	0	0	2055
68	0	0	2068
69	0	0	2068
70	0	0	2057
71	0	0	2072
72	0	0	2071
73	0	0	2071
74	0	0	2055
75	0	0	2067
76	0	0	2064
77	0	0	2066
78	0	0	2066
79	0	0	2065
80	0	0	2067
81	0	0	2064
82	0	0	2066
83	0	0	2062
84	0	0	2062
85	0	0	2076
86	0	0	2066
87	0	0	2057
88	0	0	2073
89	0	0	2070
90	0	0	2064
91	0	0	2067
92	0	0	2071
93	0	0	2064
94	0	0	2065
95	0	0	2066
96	0	0	2067
97	0	0	2065
98	0	0	2063
99	0	0	2062
100	0	0	2060
101	0	0	2065
102	0	0	2070
103	0	0	2065
104	0	0	2064
105	0	0	2067
106	0	0	2056
107	0	0	2063
108	0	0	2081
109	0	0	2087
110	0	0	2053
111	0	0	2064
112	0	0	2064
113	0	0	2063
114	0	0	2064
115	0	0	2066
116	0	0	2062
117	0	0	2066
118	0	0	2061
119	0	0	2072
120	0	0	2063
121	0	0	2059
122	0	0	2064
123	0	0	2071
124	0	0	2067
125	0	0	2062
126	0	0	2070
127	0	0	2062
0	0	0	2066
1	0	0	2066
2	0	0	2061
3	0	0	2072
4	0	0	2064
5	0	0	2061
6	0	0	2075
7	0	0	2060
8	0	0	2067
9	0	0	2072
10	0	0	2068
11	0	0	2063
12	0	0	2061
13	0	0	2068
14	0	0	2056
15	0	0	2065
16	0	0	2066
17	0	0	2068
18	0	0	2068
19	0	0	2063
20	0	0	2067
21	0	0	2060
22	0	0	2064
23	0	0	2077
24	0	0	2076
25	0	0	2070
26	0	0	2056
27	0	0	2061
28	0	0	2061
29	0	0	2065
30	0	0	2064
31	0	0	2068
32	0	0	2063
33	0	0	2064
34	0	0	2062
35	0	0	2067
36	0	0	2074
37	0	0	2066
38	0	0	2062
39	0	0	2066
40	0	0	2065
41	0	0	2060
42	0	0	2062
43	0	0	2063
44	0	0	2075
45	0	0	2066
46	0	0	2059
47	0	0	2064
48	0	0	2066
49	0	0	2066
50	0	0	2074
51	0	0	2067
52	0	0	2053
53	0	0	2068
54	0	0	2066
55	0	0	2062
56	0	0	2070
57	0	0	2062
58	0	0	2066
59	0	0	2067
60	0	0	2067
61	0	0	2067
62	0	0	2068
63	0	0	2051
64	0	0	2065
65	0	0	2079
66	0	0	2073
67	0	0	2053
68	0	0	2061
69	0	0	2064
70	0	0	2066
71	0	0	2065
72	0	0	2059
73	0	0	2063
74	0	0	2069
75	0	0	2069
76	0	0	2067
77	0	0	2064
78	0	0	2065
79	0	0	2068
80	0	0	2069
81	0	0	2065
82	0	0	2063
83	0	0	2064
84	0	0	2067
85	0	0	2067
86	0	0	2063
87	0	0	2066
88	0	0	2066
89	0	0	2066
90	0	0	2064
91	0	0	2073
92	0	0	2065
93	0	0	2061
94	0	0	2063
95	0	0	2068
96	0	0	2063
97	0	0	2065
98	0	0	2065
99	0	0	2075
100	0	0	2064
101	0	0	2061
102	0	0	2058
103	0	0	2058
104	0	0	2074
105	0	0	2073
106	0	0	2061
107	0	0	2063
108	0	0	2076
109	0	0	2063
110	0	0	2069
111	0	0	2078
112	0	0	2070
113	0	0	2060
114	0	0	2054
115	0	0	2061
116	0	0	2063
117	0	0	2060
118	0	0	2067
119	0	0	2074
120	0	0	2066
121	0	0	2059
122	0	0	2062
123	0	0	2074
124	0	0	2078
125	0	0	2065
126	0	0	2060
127	0	0	2058
0	0	0	2075
1	0	0	2070
2	0	0	2063
3	0	0	2063
4	0	0	2066
5	0	0	2068
6	0	0	2065
7	0	0	2058
8	0	0	2064
9	0	0	2068
10	0	0	2066
11	0	0	2070
12	0	0	2067
13	0	0	2061
14	0	0	2062
15	0	0	2062
16	0	0	2062
17	0	0	2062
18	0	0	2063
19	0	0	2069
20	0	0	2070
21	0	0	2067
22	0	0	2067
23	0	0	2070
24	0	0	2064
25	0	0	2064
26	0	0	2062
27	0	0	2067
28	0	0	2066
29	0	0	2067
30	0	0	2066
31	0	0	2063
32	0	0	2064
33	0	0	2064
34	0	0	2064
35	0	0	2067
36	0	0	2065
37	0	0	2064
38	0	0	2069
39	0	0	2063
40	0	0	2068
41	0	0	2062
42	0	0	2059
43	0	0	2062
44	0	0	2068
45	0	0	2061
46	0	0	2064
47	0	0	2064
48	0	0	2066
49	0	0	2072
50	0	0	2073
51	0	0	2054
52	0	0	2058
53	0	0	2066
54	0	0	2072
55	0	0	2069
56	0	0	2060
57	0	0	2066
58	0	0	2070
59	0	0	2069
60	0	0	2058
61	0	0	2058
62	0	0	2070
63	0	0	2062
64	0	0	2063
65	0	0	2061
66	0	0	2064
67	0	0	2071
68	0	0	2070
69	0	0	2070
70	0	0	2066
71	0	0	2058
72	0	0	2066
73	0	0	2064
74	0	0	2068
75	0	0	2066
76	0	0	2066
77	0	0	2060
78	0	0	2060
79	0	0	2068
80	0	0	2076
81	0	0	2062
82	0	0	2061
83	0	0	2063
84	0	0	2067
85	0	0	2068
86	0	0	2063
87	0	0	2067
88	0	0	2060
89	0	0	2062
90	0	0	2063
91	0	0	2075
92	0	0	2071
93	0	0	2062
94	0	0	2058
95	0	0	2052
96	0	0	2065
97	0	0	2072
98	0	0	2071
99	0	0	2071
100	0	0	2073
101	0	0	2062
102	0	0	2059
103	0	0	2059
104	0	0	2067
105	0	0	2067
106	0	0	2068
107	0	0	2064
108	0	0	2070
109	0	0	2076
110	0	0	2061
111	0	0	2061
112	0	0	2070
113	0	0	2055
114	0	0	2063
115	0	0	2065
116	0	0	2062
117	0	0	2069
118	0	0	2067
119	0	0	2071
120	0	0	2060
121	0	0	2063
122	0	0	2068
123	0	0	2076
124	0	0	2059
125	0	0	2065
126	0	0	2066
127	0	0	2063
0	0	0	2064
1	0	0	2059
2	0	0	2068
3	0	0	2080
4	0	0	2065
5	0	0	2062
6	0	0	2064
7	0	0	2063
8	0	0	2059
9	0	0	2073
10	0	0	2077
11	0	0	2063
12	0	0	2066
13	0	0	2068
14	0	0	2056
15	0	0	2062
16	0	0	2068
17	0	0	2068
18	0	0	2069
19	0	0	2066
20	0	0	2060
21	0	0	2068
22	0	0	2059
23	0	0	2070
24	0	0	2073
25	0	0	2064
26	0	0	2071
27	0	0	2063
28	0	0	2063
29	0	0	2073
30	0	0	2067
31	0	0	2058
32	0	0	2058
33	0	0	2060
34	0	0	2064
35	0	0	2066
36	0	0	2069
37	0	0	2064
38	0	0	2072
39	0	0	2078
40	0	0	2083
41	0	0	2075
42	0	0	2069
43	0	0	2065
44	0	0	2067
45	0	0	2054
46	0	0	2048
47	0	0	2054
48	0	0	2056
49	0	0	2066
50	0	0	2071
51	0	0	2091
52	0	0	2053
53	0	0	2081
54	0	0	2075
55	0	0	2073
56	0	0	2067
57	0	0	2062
58	0	0	2056
59	0	0	2062
60	0	0	2052
61	0	0	2054
62	0	0	2060
63	0	0	2074
64	0	0	2088
65	0	0	2076
66	0	0	2073
67	0	0	2070
68	0	0	2076
69	0	0	2065
70	0	0	2062
71	0	0	2051
72	0	0	2067
73	0	0	2064
74	0	0	2054
75	0	0	2045
76	0	0	2042
77	0	0	2053
78	0	0	2073
79	0	0	2081
80	0	0	2094
81	0	0	2095
82	0	0	2081
83	0	0	2069
84	0	0	2054
85	0	0	2059
86	0	0	2059
87	0	0	2059
88	0	0	2046
89	0	0	2054
90	0	0	2071
91	0	0	2069
92	0	0	2051
93	0	0	2050
94	0	0	2058
95	0	0	2079
96	0	0	2076
97	0	0	2072
98	0	0	2074
99	0	0	2060
100	0	0	2062
101	0	0	2058
102	0	0	2078
103	0	0	2078
104	0	0	2064
105	0	0	2080
106	0	0	2051
107	0	0	2056
108	0	0	2048
109	0	0	2052
110	0	0	2067
111	0	0	2069
112	0	0	2070
113	0	0	2065
114	0	0	2066
115	0	0	2064
116	0	0	2065
117	0	0	2072
118	0	0	2069
119	0	0	2060
120	0	0	2050
121	0	0	2050
122	0	0	2060
123	0	0	2062
124	0	0	2070
125	0	0	2082
126	0	0	2094
127	0	0	2079
0	0	0	2079
1	0	0	2076
2	0	0	2059
3	0	0	2044
4	0	0	2051
5	0	0	2044
6	0	0	2055
7	0	0	2061
8	0	0	2060
9	0	0	2073
10	0	0	2070
11	0	0	2055
12	0	0	2063
13	0	0	2084
14	0	0	2077
15	0	0	2078
16	0	0	2070
17	0	0	2052
18	0	0	2045
19	0	0	2037
20	0	0	2046
21	0	0	2054
22	0	0	2080
23	0	0	2090
24	0	0	2099
25	0	0	2098
26	0	0	2102
27	0	0	2115
28	0	0	2068
29	0	0	2036
30	0	0	2035
31	0	0	2051
32	0	0	2046
33	0	0	2042
34	0	0	2062
35	0	0	2051
36	0	0	2071
37	0	0	2076
38	0	0	2072
39	0	0	2068
40	0	0	2052
41	0	0	2063
42	0	0	2072
43	0	0	2048
44	0	0	2053
45	0	0	2053
46	0	0	2063
47	0	0	2068
48	0	0	2070
49	0	0	2077
50	0	0	2099
51	0	0	2090
52	0	0	2071
53	0	0	2058
54	0	0	2081
55	0	0	2101
56	0	0	2034
57	0	0	2058
58	0	0	2041
59	0	0	2049
60	0	0	2055
61	0	0	2069
62	0	0	2065
63	0	0	2055
64	0	0	2064
65	0	0	2067
66	0	0	2078
67	0	0	2083
68	0	0	2063
69	0	0	2055
70	0	0	2057
71	0	0	2057
72	0	0	2053
73	0	0	2072
74	0	0	2100
75	0	0	2081
76	0	0	2069
77	0	0	2064
78	0	0	2062
79	0	0	2082
80	0	0	2075
81	0	0	2042
82	0	0	2032
83	0	0	2053
84	0	0	2066
85	0	0	2064
86	0	0	2074
87	0	0	2056
88	0	0	2075
89	0	0	2086
90	0	0	2082
91	0	0	2086
92	0	0	2076
93	0	0	2079
94	0	0	2071
95	0	0	2050
96	0	0	2056
97	0	0	2043
98	0	0	2034
99	0	0	2040
100	0	0	2048
101	0	0	2039
102	0	0	2061
103	0	0	2067
104	0	0	2085
105	0	0	2065
106	0	0	2072
107	0	0	2064
108	0	0	2074
109	0	0	2082
110	0	0	2087
111	0	0	2083
112	0	0	2058
113	0	0	1997
114	0	0	2019
115	0	0	2052
116	0	0	2083
117	0	0	2101
118	0	0	2095
119	0	0	2105
120	0	0	2118
121	0	0	2148
122	0	0	2134
123	0	0	2082
124	0	0	2050
125	0	0	2011
126	0	0	1993
127	0	0	2011
0	0	0	2054
1	0	0	2040
2	0	0	2044
3	0	0	2075
4	0	0	2069
5	0	0	2087
6	0	0	2031
7	0	0	1992
8	0	0	2012
9	0	0	2042
10	0	0	2059
11	0	0	2070
12	0	0	2086
13	0	0	2133
14	0	0	2158
15	0	0	2159
16	0	0	2117
17	0	0	2087
18	0	0	2030
19	0	0	2018
20	0	0	2013
21	0	0	2048
22	0	0	2070
23	0	0	2056
24	0	0	2016
25	0	0	2034
26	0	0	2028
27	0	0	2051
28	0	0	2080
29	0	0	2096
30	0	0	2117
31	0	0	2157
32	0	0	2113
33	0	0	2049
34	0	0	2032
35	0	0	2033
36	0	0	2048
37	0	0	2060
38	0	0	2070
39	0	0	2050
40	0	0	2054
41	0	0	2064
42	0	0	2051
43	0	0	2044
44	0	0	2025
45	0	0	2011
46	0	0	2063
47	0	0	2069
48	0	0	2082
49	0	0	2101
50	0	0	2116
51	0	0	2116
52	0	0	2140
53	0	0	2127
54	0	0	2104
55	0	0	2074
56	0	0	2034
57	0	0	2021
58	0	0	2003
59	0	0	2006
60	0	0	2023
61	0	0	2043
62	0	0	2044
63	0	0	2094
64	0	0	2153
65	0	0	2110
66	0	0	2062
67	0	0	2051
68	0	0	2067
69	0	0	2055
70	0	0	2087
71	0	0	2056
72	0	0	2057
73	0	0	2041
74	0	0	2057
75	0	0	2065
76	0	0	2031
77	0	0	2029
78	0	0	2060
79	0	0	2086
80	0	0	2080
81	0	0	2094
82	0	0	2138
83	0	0	2105
84	0	0	2052
85	0	0	2081
86	0	0	2084
87	0	0	2065
88	0	0	2060
89	0	0	2037
90	0	0	2044
91	0	0	2039
92	0	0	2055
93	0	0	2055
94	0	0	2046
95	0	0	2048
96	0	0	2048
97	0	0	2069
98	0	0	2020
99	0	0	2035
100	0	0	2075
101	0	0	2135
102	0	0	2091
103	0	0	2089
104	0	0	2120
105	0	0	2123
106	0	0	2096
107	0	0	2058
108	0	0	2011
109	0	0	2046
110	0	0	2036
111	0	0	2041
112	0	0	2032
113	0	0	1995
114	0	0	2043
115	0	0	2065
116	0	0	2105
117	0	0	2022
118	0	0	2055
119	0	0	2100
120	0	0	2157
121	0	0	2175
122	0	0	2094
123	0	0	2053
124	0	0	2062
125	0	0	2081
126	0	0	1996
127	0	0	1971
0	0	0	2003
1	0	0	2065
2	0	0	2103
3	0	0	2106
4	0	0	2095
5	0	0	2065
6	0	0	2071
7	0	0	2097
8	0	0	2092
9	0	0	2052
10	0	0	2026
11	0	0	2040
12	0	0	2047
13	0	0	2012
14	0	0	2034
15	0	0	2035
16	0	0	2012
17	0	0	2040
18	0	0	2083
19	0	0	2137
20	0	0	2176
21	0	0	2146
22	0	0	2112
23	0	0	2125
24	0	0	2061
25	0	0	2000
26	0	0	2008
27	0	0	2012
28	0	0	2016
29	0	0	2009
30	0	0	2050
31	0	0	2046
32	0	0	2073
33	0	0	2139
34	0	0	2117
35	0	0	2116
36	0	0	2046
37	0	0	2002
38	0	0	2036
39	0	0	2068
40	0	0	2102
41	0	0	2084
42	0	0	2044
43	0	0	2111
44	0	0	2100
45	0	0	2086
46	0	0	2078
47	0	0	2054
48	0	0	2067
49	0	0	2092
50	0	0	2073
51	0	0	2015
52	0	0	2000
53	0	0	2044
54	0	0	2062
55	0	0	2030
56	0	0	2058
57	0	0	2037
58	0	0	2046
59	0	0	2060
60	0	0	2083
61	0	0	2107
62	0	0	2110
63	0	0	2063
64	0	0	2110
65	0	0	2154
66	0	0	2119
67	0	0	2079
68	0	0	2040
69	0	0	2054
70	0	0	2032
71	0	0	2020
72	0	0	2022
73	0	0	2078
74	0	0	2095
75	0	0	2062
76	0	0	2040
77	0	0	2040
78	0	0	2052
79	0	0	2058
80	0	0	2051
81	0	0	2058
82	0	0	2054
83	0	0	2032
84	0	0	2072
85	0	0	2057
86	0	0	2000
87	0	0	2048
88	0	0	2111
89	0	0	2101
90	0	0	2134
91	0	0	2171
92	0	0	2173
93	0	0	2094
94	0	0	2023
95	0	0	1977
96	0	0	2011
97	0	0	2057
98	0	0	2075
99	0	0	2089
100	0	0	2045
101	0	0	2018
102	0	0	2034
103	0	0	2045
104	0	0	2049
105	0	0	2060
106	0	0	2036
107	0	0	2054
108	0	0	2072
109	0	0	2101
110	0	0	2123
111	0	0	2102
112	0	0	2081
113	0	0	2071
114	0	0	2039
115	0	0	2026
116	0	0	2063
117	0	0	2063
118	0	0	2066
119	0	0	2091
120	0	0	2072
121	0	0	2067
122	0	0	2059
123	0	0	2059
124	0	0	2085
125	0	0	2059
126	0	0	2043
127	0	0	2054
0	0	0	2057
1	0	0	2055
2	0	0	2064
3	0	0	2054
4	0	0	2061
5	0	0	2093
6	0	0	2080
7	0	0	2055
8	0	0	2076
9	0	0	2097
10	0	0	2074
11	0	0	2069
12	0	0	2078
13	0	0	2083
14	0	0	2066
15	0	0	2028
16	0	0	2028
17	0	0	2056
18	0	0	2068
19	0	0	2087
20	0	0	2108
21	0	0	2095
22	0	0	2054
23	0	0	2076
24	0	0	2068
25	0	0	2046
26	0	0	2064
27	0	0	2046
28	0	0	2064
29	0	0	2055
30	0	0	2061
31	0	0	2066
32	0	0	2066
33	0	0	2069
34	0	0	2051
35	0	0	2049
36	0	0	2055
37	0	0	2068
38	0	0	2079
39	0	0	2095
40	0	0	2092
41	0	0	2066
42	0	0	2065
43	0	0	2072
44	0	0	2055
45	0	0	2046
46	0	0	2055
47	0	0	2064
48	0	0	2075
49	0	0	2078
50	0	0	2063
51	0	0	2078
52	0	0	2045
53	0	0	2038
54	0	0	2035
55	0	0	2039
56	0	0	2083
57	0	0	2108
58	0	0	2119
59	0	0	2109
60	0	0	2119
61	0	0	2066
62	0	0	2033
63	0	0	2012
64	0	0	2052
65	0	0	2083
66	0	0	2050
67	0	0	2052
68	0	0	2025
69	0	0	2043
70	0	0	2076
71	0	0	2090
72	0	0	2097
73	0	0	2081
74	0	0	2074
75	0	0	2060
76	0	0	2056
77	0	0	2040
78	0	0	2038
79	0	0	2038
80	0	0	2063
81	0	0	2059
82	0	0	2073
83	0	0	2103
84	0	0	2076
85	0	0	2050
86	0	0	2053
87	0	0	2072
88	0	0	2076
89	0	0	2080
90	0	0	2051
91	0	0	2073
92	0	0	2062
93	0	0	2082
94	0	0	2085
95	0	0	2065
96	0	0	2063
97	0	0	2075
98	0	0	2038
99	0	0	2034
100	0	0	2043
101	0	0	2063
102	0	0	2083
103	0	0	2078
104	0	0	2067
105	0	0	2052
106	0	0	2074
107	0	0	2086
108	0	0	2093
109	0	0	2060
110	0	0	2051
111	0	0	2055
112	0	0	2029
113	0	0	2034
114	0	0	2048
115	0	0	2086
116	0	0	2096
117	0	0	2072
118	0	0	2100
119	0	0	2106
120	0	0	2070
121	0	0	2052
122	0	0	2022
123	0	0	2040
124	0	0	2057
125	0	0	2062
126	0	0	2062
127	0	0	2066
0	0	0	2090
1	0	0	2110
2	0	0	2101
3	0	0	2069
4	0	0	2052
5	0	0	2073
6	0	0	2052
7	0	0	2077
8	0	0	2042
9	0	0	2035
10	0	0	2050
11	0	0	2053
12	0	0	2048
13	0	0	2074
14	0	0	2090
15	0	0	2065
16	0	0	2059
17	0	0	2078
18	0	0	2075
19	0	0	2068
20	0	0	2055
21	0	0	2061
22	0	0	2054
23	0	0	2061
24	0	0	2067
25	0	0	2061
26	0	0	2063
27	0	0	2064
28	0	0	2067
29	0	0	2069
30	0	0	2075
31	0	0	2058
32	0	0	2086
33	0	0	2066
34	0	0	2054
35	0	0	2054
36	0	0	2082
37	0	0	2084
38	0	0	2061
39	0	0	2045
40	0	0	2058
41	0	0	2074
42	0	0	2070
43	0	0	2075
44	0	0	2067
45	0	0	2071
46	0	0	2058
47	0	0	2058
48	0	0	2091
49	0	0	2093
50	0	0	2063
51	0	0	2044
52	0	0	2042
53	0	0	2057
54	0	0	2064
55	0	0	2067
56	0	0	2058
57	0	0	2065
58	0	0	2050
59	0	0	2056
60	0	0	2098
61	0	0	2097
62	0	0	2050
63	0	0	2064
64	0	0	2074
65	0	0	2060
66	0	0	2051
67	0	0	2058
68	0	0	2069
69	0	0	2065
70	0	0	2068
71	0	0	2080
72	0	0	2075
73	0	0	2064
74	0	0	2064
75	0	0	2074
76	0	0	2042
77	0	0	2053
78	0	0	2067
79	0	0	2073
80	0	0	2077
81	0	0	2059
82	0	0	2077
83	0	0	2068
84	0	0	2043
85	0	0	2051
86	0	0	2058
87	0	0	2068
88	0	0	2069
89	0	0	2088
90	0	0	2098
91	0	0	2073
92	0	0	2064
93	0	0	2067
94	0	0	2067
95	0	0	2054
96	0	0	2033
97	0	0	2050
98	0	0	2079
99	0	0	2084
100	0	0	2067
101	0	0	2064
102	0	0	2064
103	0	0	2069
104	0	0	2063
105	0	0	2055
106	0	0	2048
107	0	0	2064
108	0	0	2055
109	0	0	2052
110	0	0	2083
111	0	0	2089
112	0	0	2093
113	0	0	2080
114	0	0	2104
115	0	0	2051
116	0	0	2055
117	0	0	2038
118	0	0	2075
119	0	0	2037
120	0	0	2050
121	0	0	2063
122	0	0	2074
123	0	0	2091
124	0	0	2070
125	0	0	2059
126	0	0	2058
127	0	0	2060
0	0	0	2062
1	0	0	2057
2	0	0	2067
3	0	0	2081
4	0	0	2070
5	0	0	2061
6	0	0	2058
7	0	0	2068
8	0	0	2068
9	0	0	2062
10	0	0	2061
11	0	0	2060
12	0	0	2064
13	0	0	2061
14	0	0	2072
15	0	0	2072
16	0	0	2080
17	0	0	2072
18	0	0	2063
19	0	0	2072
20	0	0	2064
21	0	0	2066
22	0	0	2067
23	0	0	2075
24	0	0	2055
25	0	0	2060
26	0	0	2070
27	0	0	2060
28	0	0	2068
29	0	0	2065
30	0	0	2069
31	0	0	2060
32	0	0	2060
33	0	0	2065
34	0	0	2062
35	0	0	2066
36	0	0	2063
37	0	0	2059
38	0	0	2085
39	0	0	2067
40	0	0	2067
41	0	0	2078
42	0	0	2081
43	0	0	2071
44	0	0	2062
45	0	0	2054
46	0	0	2057
47	0	0	2048
48	0	0	2058
49	0	0	2063
50	0	0	2081
51	0	0	2069
52	0	0	2062
53	0	0	2053
54	0	0	2043
55	0	0	2061
56	0	0	2080
57	0	0	2075
58	0	0	2072
59	0	0	2084
60	0	0	2090
61	0	0	2064
62	0	0	2058
63	0	0	2062
64	0	0	2082
65	0	0	2068
66	0	0	2059
67	0	0	2052
68	0	0	2062
69	0	0	2063
70	0	0	2064
71	0	0	2055
72	0	0	2079
73	0	0	2077
74	0	0	2072
75	0	0	2064
76	0	0	2062
77	0	0	2064
78	0	0	2067
79	0	0	2061
80	0	0	2063
81	0	0	2056
82	0	0	2069
83	0	0	2053
84	0	0	2059
85	0	0	2075
86	0	0	2088
87	0	0	2087
88	0	0	2079
89	0	0	2079
90	0	0	2091
91	0	0	2084
92	0	0	2073
93	0	0	2050
94	0	0	2049
95	0	0	2060
96	0	0	2049
97	0	0	2056
98	0	0	2067
99	0	0	2070
100	0	0	2070
101	0	0	2084
102	0	0	2064
103	0	0	2063
104	0	0	2061
105	0	0	2049
106	0	0	2064
107	0	0	2061
108	0	0	2062
109	0	0	2066
110	0	0	2052
111	0	0	2058
112	0	0	2085
113	0	0	2067
114	0	0	2055
115	0	0	2068
116	0	0	2073
117	0	0	2069
118	0	0	2048
119	0	0	2051
120	0	0	2066
121	0	0	2055
122	0	0	2069
123	0	0	2051
124	0	0	2054
125	0	0	2063
126	0	0	2079
127	0	0	2092
0	0	0	2088
1	0	0	2074
2	0	0	2074
3	0	0	2045
4	0	0	2088
5	0	0	2100
6	0	0	2035
7	0	0	2025
8	0	0	2054
9	0	0	2061
10	0	0	2066
11	0	0	2048
12	0	0	2054
13	0	0	2052
14	0	0	2061
15	0	0	2070
16	0	0	2065
17	0	0	2068
18	0	0	2059
19	0	0	2050
20	0	0	2052
21	0	0	2072
22	0	0	2077
23	0	0	2062
24	0	0	2059
25	0	0	2074
26	0	0	2063
27	0	0	2073
28	0	0	2080
29	0	0	2055
30	0	0	2053
31	0	0	2067
32	0	0	2079
33	0	0	2083
34	0	0	2062
35	0	0	2062
36	0	0	2065
37	0	0	2064
38	0	0	2066
39	0	0	2064
40	0	0	2077
41	0	0	2065
42	0	0	2076
43	0	0	2065
44	0	0	2059
45	0	0	2061
46	0	0	2067
47	0	0	2065
48	0	0	2079
49	0	0	2067
50	0	0	2057
51	0	0	2059
52	0	0	2054
53	0	0	2071
54	0	0	2069
55	0	0	2069
56	0	0	2078
57	0	0	2084
58	0	0	2087
59	0	0	2067
60	0	0	2061
61	0	0	2070
62	0	0	2072
63	0	0	2061
64	0	0	2058
65	0	0	2057
66	0	0	2063
67	0	0	2059
68	0	0	2063
69	0	0	2063
70	0	0	2065
71	0	0	2063
72	0	0	2066
73	0	0	2064
74	0	0	2067
75	0	0	2071
76	0	0	2064
77	0	0	2078
78	0	0	2063
79	0	0	2050
80	0	0	2060
81	0	0	2071
82	0	0	2063
83	0	0	2060
84	0	0	2065
85	0	0	2072
86	0	0	2080
87	0	0	2083
88	0	0	2072
89	0	0	2061
90	0	0	2061
91	0	0	2063
92	0	0	2078
93	0	0	2064
94	0	0	2056
95	0	0	2061
96	0	0	2057
97	0	0	2066
98	0	0	2056
99	0	0	2075
100	0	0	2065
101	0	0	2046
102	0	0	2061
103	0	0	2068
104	0	0	2063
105	0	0	2069
106	0	0	2068
107	0	0	2068
108	0	0	2065
109	0	0	2060
110	0	0	2061
111	0	0	2064
112	0	0	2065
113	0	0	2064
114	0	0	2063
115	0	0	2070
116	0	0	2078
117	0	0	2064
118	0	0	2069
119	0	0	2048
120	0	0	2071
121	0	0	2080
122	0	0	2071
123	0	0	2068
124	0	0	2077
125	0	0	2043
126	0	0	2070
127	0	0	2075
0	0	0	2054
1	0	0	2068
2	0	0	2063
3	0	0	2058
4	0	0	2061
5	0	0	2062
6	0	0	2071
7	0	0	2063
8	0	0	2069
9	0	0	2063
10	0	0	2064
11	0	0	2066
12	0	0	2075
13	0	0	2067
14	0	0	2070
15	0	0	2063
16	0	0	2059
17	0	0	2064
18	0	0	2072
19	0	0	2067
20	0	0	2062
21	0	0	2069
22	0	0	2066
23	0	0	2075
24	0	0	2076
25	0	0	2062
26	0	0	2059
27	0	0	2058
28	0	0	2063
29	0	0	2063
30	0	0	2067
31	0	0	2068
32	0	0	2061
33	0	0	2063
34	0	0	2072
35	0	0	2069
36	0	0	2091
37	0	0	2075
38	0	0	2066
39	0	0	2060
40	0	0	2071
41	0	0	2064
42	0	0	2062
43	0	0	2056
44	0	0	2069
45	0	0	2071
46	0	0	2078
47	0	0	2064
48	0	0	2064
49	0	0	2069
50	0	0	2059
51	0	0	2060
52	0	0	2062
53	0	0	2063
54	0	0	2063
55	0	0	2070
56	0	0	2071
57	0	0	2063
58	0	0	2075
59	0	0	2063
60	0	0	2054
61	0	0	2065
62	0	0	2069
63	0	0	2055
64	0	0	2067
65	0	0	2062
66	0	0	2070
67	0	0	2066
68	0	0	2078
69	0	0	2068
70	0	0	2078
71	0	0	2067
72	0	0	2048
73	0	0	2049
74	0	0	2038
75	0	0	2044
76	0	0	2065
77	0	0	2058
78	0	0	2060
79	0	0	2071
80	0	0	2060
81	0	0	2063
82	0	0	2064
83	0	0	2078
84	0	0	2067
85	0	0	2052
86	0	0	2079
87	0	0	2069
88	0	0	2066
89	0	0	2066
90	0	0	2073
91	0	0	2070
92	0	0	2066
93	0	0	2062
94	0	0	2068
95	0	0	2061
96	0	0	2083
97	0	0	2074
98	0	0	2049
99	0	0	2065
100	0	0	2081
101	0	0	2063
102	0	0	2072
103	0	0	2067
104	0	0	2063
105	0	0	2066
106	0	0	2066
107	0	0	2062
108	0	0	2062
109	0	0	2073
110	0	0	2075
111	0	0	2071
112	0	0	2066
113	0	0	2062
114	0	0	2069
115	0	0	2048
116	0	0	2067
117	0	0	2061
118	0	0	2067
119	0	0	2050
120	0	0	2086
121	0	0	2101
122	0	0	2070
123	0	0	2042
124	0	0	2053
125	0	0	2070
126	0	0	2056
127	0	0	2062
0	0	0	2064
1	0	0	2080
2	0	0	2072
3	0	0	2046
4	0	0	2070
5	0	0	2074
6	0	0	2072
7	0	0	2056
8	0	0	2066
9	0	0	2057
10	0	0	2063
11	0	0	2078
12	0	0	2071
13	0	0	2090
14	0	0	2051
15	0	0	2057
16	0	0	2073
17	0	0	2062
18	0	0	2055
19	0	0	2075
20	0	0	2068
21	0	0	2073
22	0	0	2068
23	0	0	2049
24	0	0	2059
25	0	0	2076
26	0	0	2078
27	0	0	2071
28	0	0	2061
29	0	0	2060
30	0	0	2066
31	0	0	2067
32	0	0	2065
33	0	0	2068
34	0	0	2067
35	0	0	2068
36	0	0	2073
37	0	0	2069
38	0	0	2072
39	0	0	2070
40	0	0	2064
41	0	0	2053
42	0	0	2060
43	0	0	2069
44	0	0	2076
45	0	0	2066
46	0	0	2077
47	0	0	2060
48	0	0	2068
49	0	0	2058
50	0	0	2072
51	0	0	2061
52	0	0	2068
53	0	0	2059
54	0	0	2055
55	0	0	2075
56	0	0	2062
57	0	0	2072
58	0	0	2084
59	0	0	2055
60	0	0	2048
61	0	0	2070
62	0	0	2082
63	0	0	2061
64	0	0	2045
65	0	0	2070
66	0	0	2083
67	0	0	2065
68	0	0	2064
69	0	0	2073
70	0	0	2064
71	0	0	2052
72	0	0	2055
73	0	0	2054
74	0	0	2070
75	0	0	2064
76	0	0	2069
77	0	0	2062
78	0	0	2061
79	0	0	2061
80	0	0	2064
81	0	0	2062
82	0	0	2074
83	0	0	2066
84	0	0	2068
85	0	0	2071
86	0	0	2062
87	0	0	2065
88	0	0	2056
89	0	0	2076
90	0	0	2060
91	0	0	2076
92	0	0	2066
93	0	0	2058
94	0	0	2065
95	0	0	2038
96	0	0	2066
97	0	0	2078
98	0	0	2062
99	0	0	2058
100	0	0	2078
101	0	0	2080
102	0	0	2056
103	0	0	2060
104	0	0	2059
105	0	0	2058
106	0	0	2066
107	0	0	2059
108	0	0	2052
109	0	0	2077
110	0	0	2084
111	0	0	2071
112	0	0	2064
113	0	0	2063
114	0	0	2069
115	0	0	2060
116	0	0	2058
117	0	0	2066
118	0	0	2062
119	0	0	2062
120	0	0	2068
121	0	0	2059
122	0	0	2076
123	0	0	2070
124	0	0	2059
125	0	0	2059
126	0	0	2068
127	0	0	2072
0	0	0	2060
1	0	0	2061
2	0	0	2070
3	0	0	2067
4	0	0	2067
5	0	0	2052
6	0	0	2069
7	0	0	2073
8	0	0	2076
9	0	0	2071
10	0	0	2066
11	0	0	2059
12	0	0	2056
13	0	0	2058
14	0	0	2070
15	0	0	2061
16	0	0	2075
17	0	0	2071
18	0	0	2076
19	0	0	2067
20	0	0	2061
21	0	0	2081
22	0	0	2052
23	0	0	2064
24	0	0	2072
25	0	0	2065
26	0	0	2061
27	0	0	2061
28	0	0	2064
29	0	0	2074
30	0	0	2070
31	0	0	2062
32	0	0	2065
33	0	0	2058
34	0	0	2070
35	0	0	2070
36	0	0	2068
37	0	0	2066
38	0	0	2070
39	0	0	2074
40	0	0	2058
41	0	0	2067
42	0	0	2050
43	0	0	2072
44	0	0	2065
45	0	0	2058
46	0	0	2071
47	0	0	2075
48	0	0	2080
49	0	0	2060
50	0	0	2064
51	0	0	2069
52	0	0	2057
53	0	0	2061
54	0	0	2064
55	0	0	2058
56	0	0	2066
57	0	0	2063
58	0	0	2086
59	0	0	2070
60	0	0	2065
61	0	0	2063
62	0	0	2059
63	0	0	2063
64	0	0	2058
65	0	0	2060
66	0	0	2083
67	0	0	2057
68	0	0	2071
69	0	0	2066
70	0	0	2070
71	0	0	2063
72	0	0	2064
73	0	0	2061
74	0	0	2075
75	0	0	2064
76	0	0	2064
77	0	0	2058
78	0	0	2056
79	0	0	2065
80	0	0	2073
81	0	0	2063
82	0	0	2073
83	0	0	2068
84	0	0	2068
85	0	0	2075
86	0	0	2072
87	0	0	2061
88	0	0	2059
89	0	0	2057
90	0	0	2059
91	0	0	2063
92	0	0	2064
93	0	0	2069
94	0	0	2064
95	0	0	2060
96	0	0	2071
97	0	0	2055
98	0	0	2056
99	0	0	2073
100	0	0	2091
101	0	0	2077
102	0	0	2067
103	0	0	2061
104	0	0	2060
105	0	0	2061
106	0	0	2066
107	0	0	2065
108	0	0	2059
109	0	0	2054
110	0	0	2062
111	0	0	2080
112	0	0	2065
113	0	0	2077
114	0	0	2063
115	0	0	2061
116	0	0	2071
117	0	0	2070
118	0	0	2075
119	0	0	2049
120	0	0	2062
121	0	0	2090
122	0	0	2068
123	0	0	2060
124	0	0	2061
125	0	0	2059
126	0	0	2064
127	0	0	2075
0	0	0	2069
1	0	0	2077
2	0	0	2058
3	0	0	2066
4	0	0	2059
5	0	0	2062
6	0	0	2071
7	0	0	2064
8	0	0	2063
9	0	0	2065
10	0	0	2070
11	0	0	2056
12	0	0	2059
13	0	0	2066
14	0	0	2079
15	0	0	2062
16	0	0	2063
17	0	0	2061
18	0	0	2059
19	0	0	2079
20	0	0	2054
21	0	0	2064
22	0	0	2070
23	0	0	2080
24	0	0	2060
25	0	0	2077
26	0	0	2078
27	0	0	2092
28	0	0	2076
29	0	0	2070
30	0	0	2063
31	0	0	2055
32	0	0	2058
33	0	0	2053
34	0	0	2058
35	0	0	2065
36	0	0	2055
37	0	0	2064
38	0	0	2064
39	0	0	2063
40	0	0	2073
41	0	0	2064
42	0	0	2062
43	0	0	2062
44	0	0	2062
45	0	0	2071
46	0	0	2055
47	0	0	2059
48	0	0	2056
49	0	0	2058
50	0	0	2073
51	0	0	2068
52	0	0	2069
53	0	0	2063
54	0	0	2068
55	0	0	2085
56	0	0	2083
57	0	0	2079
58	0	0	2072
59	0	0	2067
60	0	0	2050
61	0	0	2045
62	0	0	2074
63	0	0	2039
64	0	0	2041
65	0	0	2054
66	0	0	2086
67	0	0	2095
68	0	0	2095
69	0	0	2090
70	0	0	2106
71	0	0	2024
72	0	0	2058
73	0	0	2070
74	0	0	2055
75	0	0	2072
76	0	0	2066
77	0	0	2076
78	0	0	2055
79	0	0	2039
80	0	0	2046
81	0	0	2042
82	0	0	2075
83	0	0	2049
84	0	0	2070
85	0	0	2075
86	0	0	2064
87	0	0	2058
88	0	0	2066
89	0	0	2071
90	0	0	2084
91	0	0	2088
92	0	0	2079
93	0	0	2078
94	0	0	2078
95	0	0	2070
96	0	0	2046
97	0	0	2040
98	0	0	2051
99	0	0	2053
100	0	0	2058
101	0	0	2059
102	0	0	2118
103	0	0	2112
104	0	0	2061
105	0	0	2050
106	0	0	2055
107	0	0	2033
108	0	0	2042
109	0	0	2034
110	0	0	2032
111	0	0	2054
112	0	0	2077
113	0	0	2075
114	0	0	2072
115	0	0	2082
116	0	0	2100
117	0	0	2128
118	0	0	2143
119	0	0	2141
120	0	0	2096
121	0	0	2058
122	0	0	2042
123	0	0	2030
124	0	0	2016
125	0	0	2044
126	0	0	2031
127	0	0	2060
0	0	0	2033
1	0	0	2014
2	0	0	2042
3	0	0	2070
4	0	0	2058
5	0	0	2090
6	0	0	2086
7	0	0	2079
8	0	0	2057
9	0	0	2057
10	0	0	2048
11	0	0	2083
12	0	0	2107
13	0	0	2092
14	0	0	2103
15	0	0	2077
16	0	0	2085
17	0	0	2096
18	0	0	2123
19	0	0	2110
20	0	0	2025
21	0	0	2024
22	0	0	2032
23	0	0	2045
24	0	0	2076
25	0	0	2038
26	0	0	2038
27	0	0	2034
28	0	0	2045
29	0	0	2050
30	0	0	2062
31	0	0	2073
32	0	0	2089
33	0	0	2056
34	0	0	2088
35	0	0	2109
36	0	0	2080
37	0	0	2075
38	0	0	2075
39	0	0	2096
40	0	0	2103
41	0	0	2111
42	0	0	2079
43	0	0	2052
44	0	0	2026
45	0	0	2053
46	0	0	2069
47	0	0	2081
48	0	0	2063
49	0	0	2091
50	0	0	2108
51	0	0	2103
52	0	0	2080
53	0	0	2050
54	0	0	2047
55	0	0	2034
56	0	0	2038
57	0	0	2054
58	0	0	2055
59	0	0	2033
60	0	0	2067
61	0	0	2062
62	0	0	2055
63	0	0	2044
64	0	0	2054
65	0	0	2098
66	0	0	2112
67	0	0	2081
68	0	0	2053
69	0	0	2064
70	0	0	2064
71	0	0	2055
72	0	0	2024
73	0	0	2033
74	0	0	2003
75	0	0	2023
76	0	0	2031
77	0	0	2044
78	0	0	2070
79	0	0	2118
80	0	0	2144
81	0	0	2141
82	0	0	2086
83	0	0	2051
84	0	0	1979
85	0	0	1977
86	0	0	2011
87	0	0	2045
88	0	0	1993
89	0	0	1993
90	0	0	2001
91	0	0	2043
92	0	0	2055
93	0	0	2084
94	0	0	2139
95	0	0	2148
96	0	0	2147
97	0	0	2072
98	0	0	2032
99	0	0	2029
100	0	0	2021
101	0	0	2016
102	0	0	2046
103	0	0	2031
104	0	0	2078
105	0	0	2091
106	0	0	2101
107	0	0	2094
108	0	0	2130
109	0	0	2197
110	0	0	2182
111	0	0	2090
112	0	0	2009
113	0	0	2022
114	0	0	2054
115	0	0	2018
116	0	0	2026
117	0	0	2060
118	0	0	2082
119	0	0	2053
120	0	0	2028
121	0	0	2045
122	0	0	2019
123	0	0	2021
124	0	0	2052
125	0	0	2094
126	0	0	2104
127	0	0	2145
0	0	0	2135
1	0	0	2118
2	0	0	2091
3	0	0	2061
4	0	0	2051
5	0	0	2028
6	0	0	2055
7	0	0	2040
8	0	0	2045
9	0	0	2023
10	0	0	2046
11	0	0	2066
12	0	0	2075
13	0	0	2117
14	0	0	2084
15	0	0	2057
16	0	0	2053
17	0	0	2096
18	0	0	2096
19	0	0	2048
20	0	0	2034
21	0	0	2046
22	0	0	2076
23	0	0	2061
24	0	0	2065
25	0	0	2024
26	0	0	2060
27	0	0	2059
28	0	0	2071
29	0	0	2079
30	0	0	2093
31	0	0	2096
32	0	0	2094
33	0	0	2061
34	0	0	2014
35	0	0	2038
36	0	0	2056
37	0	0	2067
38	0	0	2064
39	0	0	2095
40	0	0	2138
41	0	0	2129
42	0	0	2056
43	0	0	2045
44	0	0	2048
45	0	0	2046
46	0	0	2054
47	0	0	2069
48	0	0	2060
49	0	0	2052
50	0	0	2053
51	0	0	2064
52	0	0	2045
53	0	0	2075
54	0	0	2055
55	0	0	2070
56	0	0	2104
57	0	0	2104
58	0	0	2084
59	0	0	2071
60	0	0	2056
61	0	0	2056
62	0	0	2043
63	0	0	2063
64	0	0	2048
65	0	0	2078
66	0	0	2084
67	0	0	2050
68	0	0	2078
69	0	0	2101
70	0	0	2088
71	0	0	2059
72	0	0	2059
73	0	0	2063
74	0	0	2053
75	0	0	2057
76	0	0	2036
77	0	0	2033
78	0	0	2019
79	0	0	2059
80	0	0	2075
81	0	0	2067
82	0	0	2069
83	0	0	2100
84	0	0	2130
85	0	0	2162
86	0	0	2074
87	0	0	2015
88	0	0	2055
89	0	0	2072
90	0	0	2066
91	0	0	2054
92	0	0	2048
93	0	0	2073
94	0	0	2060
95	0	0	2040
96	0	0	2045
97	0	0	2073
98	0	0	2076
99	0	0	2053
100	0	0	2058
101	0	0	2064
102	0	0	2064
103	0	0	2041
104	0	0	2058
105	0	0	2075
106	0	0	2077
107	0	0	2068
108	0	0	2054
109	0	0	2049
110	0	0	2055
111	0	0	2055
112	0	0	2040
113	0	0	2064
114	0	0	2109
115	0	0	2116
116	0	0	2113
117	0	0	2093
118	0	0	2096
119	0	0	2097
120	0	0	2023
121	0	0	2036
122	0	0	2033
123	0	0	2045
124	0	0	2061
125	0	0	2056
126	0	0	2045
127	0	0	2045
0	0	0	2065
1	0	0	2088
2	0	0	2102
3	0	0	2058
4	0	0	2045
5	0	0	2050
6	0	0	2064
7	0	0	2062
8	0	0	2060
9	0	0	2055
10	0	0	2057
11	0	0	2057
12	0	0	2067
13	0	0	2063
14	0	0	2072
15	0	0	2070
16	0	0	2063
17	0	0	2045
18	0	0	2070
19	0	0	2066
20	0	0	2066
21	0	0	2079
22	0	0	2073
23	0	0	2079
24	0	0	2067
25	0	0	2075
26	0	0	2082
27	0	0	2088
28	0	0	2075
29	0	0	2045
30	0	0	2032
31	0	0	2044
32	0	0	2056
33	0	0	2054
34	0	0	2061
35	0	0	2075
36	0	0	2078
37	0	0	2063
38	0	0	2059
39	0	0	2056
40	0	0	2050
41	0	0	2075
42	0	0	2075
43	0	0	2096
44	0	0	2079
45	0	0	2062
46	0	0	2057
47	0	0	2064
48	0	0	2076
49	0	0	2074
50	0	0	2041
51	0	0	2044
52	0	0	2052
53	0	0	2042
54	0	0	2046
55	0	0	2063
56	0	0	2083
57	0	0	2073
58	0	0	2094
59	0	0	2107
60	0	0	2101
61	0	0	2053
62	0	0	2060
63	0	0	2072
64	0	0	2051
65	0	0	2030
66	0	0	2051
67	0	0	2062
68	0	0	2066
69	0	0	2056
70	0	0	2051
71	0	0	2060
72	0	0	2063
73	0	0	2054
74	0	0	2063
75	0	0	2107
76	0	0	2090
77	0	0	2085
78	0	0	2105
79	0	0	2129
80	0	0	2058
81	0	0	2026
82	0	0	2020
83	0	0	2050
84	0	0	2066
85	0	0	2060
86	0	0	2054
87	0	0	2064
88	0	0	2070
89	0	0	2076
90	0	0	2054
91	0	0	2053
92	0	0	2067
93	0	0	2069
94	0	0	2071
95	0	0	2069
96	0	0	2067
97	0	0	2068
98	0	0	2072
99	0	0	2066
100	0	0	2067
101	0	0	2055
102	0	0	2055
103	0	0	2085
104	0	0	2062
105	0	0	2052
106	0	0	2049
107	0	0	2058
108	0	0	2071
109	0	0	2068
110	0	0	2080
111	0	0	2085
112	0	0	2099
113	0	0	2078
114	0	0	2054
115	0	0	2045
116	0	0	2054
117	0	0	2069
118	0	0	2073
119	0	0	2068
120	0	0	2051
121	0	0	2055
122	0	0	2068
123	0	0	2060
124	0	0	2052
125	0	0	2071
126	0	0	2074
127	0	0	2067
0	0	0	2076
1	0	0	2079
2	0	0	2061
3	0	0	2048
4	0	0	2049
5	0	0	2059
6	0	0	2072
7	0	0	2063
8	0	0	2058
9	0	0	2060
10	0	0	2067
11	0	0	2074
12	0	0	2073
13	0	0	2056
14	0	0	2094
15	0	0	2115
16	0	0	2066
17	0	0	2053
18	0	0	2058
19	0	0	2075
20	0	0	2060
21	0	0	2047
22	0	0	2049
23	0	0	2058
24	0	0	2058
25	0	0	2060
26	0	0	2057
27	0	0	2059
28	0	0	2071
29	0	0	2089
30	0	0	2073
31	0	0	2051
32	0	0	2087
33	0	0	2105
34	0	0	2075
35	0	0	2036
36	0	0	2061
37	0	0	2049
38	0	0	2049
39	0	0	2064
40	0	0	2088
41	0	0	2076
42	0	0	2049
43	0	0	2039
44	0	0	2062
45	0	0	2086
46	0	0	2065
47	0	0	2079
48	0	0	2086
49	0	0	2054
50	0	0	2068
51	0	0	2083
52	0	0	2087
53	0	0	2086
54	0	0	2057
55	0	0	2041
56	0	0	2031
57	0	0	2054
58	0	0	2057
59	0	0	2058
60	0	0	2067
61	0	0	2064
62	0	0	2060
63	0	0	2065
64	0	0	2061
65	0	0	2062
66	0	0	2060
67	0	0	2073
68	0	0	2052
69	0	0	2060
70	0	0	2070
71	0	0	2090
72	0	0	2084
73	0	0	2094
74	0	0	2079
75	0	0	2083
76	0	0	2057
77	0	0	2041
78	0	0	2054
79	0	0	2062
80	0	0	2070
81	0	0	2064
82	0	0	2060
83	0	0	2055
84	0	0	2065
85	0	0	2070
86	0	0	2077
87	0	0	2066
88	0	0	2060
89	0	0	2051
90	0	0	2053
91	0	0	2073
92	0	0	2074
93	0	0	2080
94	0	0	2078
95	0	0	2068
96	0	0	2074
97	0	0	2070
98	0	0	2060
99	0	0	2061
100	0	0	2052
101	0	0	2050
102	0	0	2059
103	0	0	2061
104	0	0	2064
105	0	0	2071
106	0	0	2084
107	0	0	2060
108	0	0	2054
109	0	0	2067
110	0	0	2062
111	0	0	2070
112	0	0	2070
113	0	0	2067
114	0	0	2061
115	0	0	2061
116	0	0	2062
117	0	0	2060
118	0	0	2064
119	0	0	2072
120	0	0	2069
121	0	0	2053
122	0	0	2067
123	0	0	2078
124	0	0	2083
125	0	0	2071
126	0	0	2072
127	0	0	2092
0	0	0	2081
1	0	0	2057
2	0	0	2031
3	0	0	2052
4	0	0	2056
5	0	0	2065
6	0	0	2067
7	0	0	2060
8	0	0	2051
9	0	0	2054
10	0	0	2089
11	0	0	2089
12	0	0	2062
13	0	0	2061
14	0	0	2057
15	0	0	2061
16	0	0	2073
17	0	0	2087
18	0	0	2050
19	0	0	2051
20	0	0	2057
21	0	0	2078
22	0	0	2075
23	0	0	2071
24	0	0	2082
25	0	0	2085
26	0	0	2064
27	0	0	2050
28	0	0	2050
29	0	0	2059
30	0	0	2061
31	0	0	2062
32	0	0	2065
33	0	0	2062
34	0	0	2074
35	0	0	2077
36	0	0	2055
37	0	0	2077
38	0	0	2065
39	0	0	2072
40	0	0	2062
41	0	0	2074
42	0	0	2071
43	0	0	2068
44	0	0	2057
45	0	0	2071
46	0	0	2079
47	0	0	2062
48	0	0	2050
49	0	0	2045
50	0	0	2062
51	0	0	2084
52	0	0	2053
53	0	0	2087
54	0	0	2071
55	0	0	2079
56	0	0	2092
57	0	0	2070
58	0	0	2039
59	0	0	2038
60	0	0	2062
61	0	0	2063
62	0	0	2073
63	0	0	2075
64	0	0	2076
65	0	0	2077
66	0	0	2069
67	0	0	2058
68	0	0	2066
69	0	0	2057
70	0	0	2068
71	0	0	2063
72	0	0	2059
73	0	0	2074
74	0	0	2052
75	0	0	2059
76	0	0	2078
77	0	0	2083
78	0	0	2074
79	0	0	2056
80	0	0	2063
81	0	0	2070
82	0	0	2062
83	0	0	2065
84	0	0	2066
85	0	0	2060
86	0	0	2059
87	0	0	2065
88	0	0	2061
89	0	0	2061
90	0	0	2062
91	0	0	2059
92	0	0	2066
93	0	0	2070
94	0	0	2087
95	0	0	2091
96	0	0	2085
97	0	0	2075
98	0	0	2052
99	0	0	2045
100	0	0	2057
101	0	0	2062
102	0	0	2061
103	0	0	2063
104	0	0	2065
105	0	0	2061
106	0	0	2048
107	0	0	2055
108	0	0	2068
109	0	0	2072
110	0	0	2089
111	0	0	2084
112	0	0	2091
113	0	0	2076
114	0	0	2072
115	0	0	2063
116	0	0	2069
117	0	0	2072
118	0	0	2063
119	0	0	2063
120	0	0	2058
121	0	0	2066
122	0	0	2062
123	0	0	2060
124	0	0	2061
125	0	0	2071
126	0	0	2072
127	0	0	2076
0	0	0	2064
1	0	0	2064
2	0	0	2062
3	0	0	2053
4	0	0	2055
5	0	0	2052
6	0	0	2073
7	0	0	2064
8	0	0	2067
9	0	0	2059
10	0	0	2065
11	0	0	2062
12	0	0	2072
13	0	0	2072
14	0	0	2058
15	0	0	2051
16	0	0	2056
17	0	0	2053
18	0	0	2061
19	0	0	2057
20	0	0	2073
21	0	0	2078
22	0	0	2074
23	0	0	2076
24	0	0	2078
25	0	0	2065
26	0	0	2062
27	0	0	2059
28	0	0	2055
29	0	0	2058
30	0	0	2058
31	0	0	2063
32	0	0	2071
33	0	0	2065
34	0	0	2068
35	0	0	2066
36	0	0	2066
37	0	0	2067
38	0	0	2069
39	0	0	2059
40	0	0	2071
41	0	0	2065
42	0	0	2065
43	0	0	2067
44	0	0	2074
45	0	0	2074
46	0	0	2064
47	0	0	2051
48	0	0	2067
49	0	0	2067
50	0	0	2069
51	0	0	2067
52	0	0	2065
53	0	0	2070
54	0	0	2073
55	0	0	2077
56	0	0	2066
57	0	0	2061
58	0	0	2051
59	0	0	2058
60	0	0	2064
61	0	0	2084
62	0	0	2067
63	0	0	2063
64	0	0	2054
65	0	0	2064
66	0	0	2076
67	0	0	2063
68	0	0	2063
69	0	0	2062
70	0	0	2060
71	0	0	2069
72	0	0	2066
73	0	0	2067
74	0	0	2067
75	0	0	2066
76	0	0	2060
77	0	0	2058
78	0	0	2068
79	0	0	2071
80	0	0	2080
81	0	0	2082
82	0	0	2055
83	0	0	2054
84	0	0	2060
85	0	0	2071
86	0	0	2070
87	0	0	2066
88	0	0	2058
89	0	0	2063
90	0	0	2067
91	0	0	2069
92	0	0	2060
93	0	0	2060
94	0	0	2070
95	0	0	2062
96	0	0	2066
97	0	0	2061
98	0	0	2066
99	0	0	2066
100	0	0	2073
101	0	0	2059
102	0	0	2062
103	0	0	2062
104	0	0	2069
105	0	0	2065
106	0	0	2064
107	0	0	2068
108	0	0	2074
109	0	0	2077
110	0	0	2074
111	0	0	2067
112	0	0	2061
113	0	0	2055
114	0	0	2063
115	0	0	2065
116	0	0	2063
117	0	0	2069
118	0	0	2063
119	0	0	2065
120	0	0	2065
121	0	0	2067
122	0	0	2067
123	0	0	2066
124	0	0	2064
125	0	0	2070
126	0	0	2073
127	0	0	2065
0	0	0	2058
1	0	0	2058
2	0	0	2060
3	0	0	2064
4	0	0	2068
5	0	0	2058
6	0	0	2053
7	0	0	2068
8	0	0	2106
9	0	0	2084
10	0	0	2074
11	0	0	2057
12	0	0	2062
13	0	0	2064
14	0	0	2055
15	0	0	2065
16	0	0	2052
17	0	0	2062
18	0	0	2079
19	0	0	2071
20	0	0	2063
21	0	0	2063
22	0	0	2072
23	0	0	2058
24	0	0	2052
25	0	0	2059
26	0	0	2075
27	0	0	2055
28	0	0	2060
29	0	0	2076
30	0	0	2074
31	0	0	2083
32	0	0	2072
33	0	0	2054
34	0	0	2067
35	0	0	2066
36	0	0	2067
37	0	0	2060
38	0	0	2071
39	0	0	2064
40	0	0	2065
41	0	0	2060
42	0	0	2062
43	0	0	2065
44	0	0	2064
45	0	0	2065
46	0	0	2075
47	0	0	2059
48	0	0	2056
49	0	0	2072
50	0	0	2058
51	0	0	2054
52	0	0	2078
53	0	0	2067
54	0	0	2059
55	0	0	2072
56	0	0	2069
57	0	0	2056
58	0	0	2069
59	0	0	2068
60	0	0	2067
61	0	0	2065
62	0	0	2052
63	0	0	2068
64	0	0	2060
65	0	0	2072
66	0	0	2073
67	0	0	2082
68	0	0	2053
69	0	0	2057
70	0	0	2056
71	0	0	2054
72	0	0	2071
73	0	0	2077
74	0	0	2075
75	0	0	2075
76	0	0	2051
77	0	0	2059
78	0	0	2052
79	0	0	2071
80	0	0	2070
81	0	0	2064
82	0	0	2064
83	0	0	2060
84	0	0	2066
85	0	0	2076
86	0	0	2062
87	0	0	2060
88	0	0	2057
89	0	0	2076
90	0	0	2053
91	0	0	2073
92	0	0	2061
93	0	0	2065
94	0	0	2076
95	0	0	2063
96	0	0	2062
97	0	0	2066
98	0	0	2067
99	0	0	2060
100	0	0	2070
101	0	0	2066
102	0	0	2065
103	0	0	2059
104	0	0	2066
105	0	0	2065
106	0	0	2076
107	0	0	2094
108	0	0	2082
109	0	0	2067
110	0	0	2058
111	0	0	2044
112	0	0	2057
113	0	0	2066
114	0	0	2055
115	0	0	2066
116	0	0	2084
117	0	0	2069
118	0	0	2056
119	0	0	2072
120	0	0	2062
121	0	0	2084
122	0	0	2076
123	0	0	2041
124	0	0	2068
125	0	0	2065
126	0	0	2066
127	0	0	2064
0	0	0	2061
1	0	0	2063
2	0	0	2055
3	0	0	2081
4	0	0	2062
5	0	0	2073
6	0	0	2063
7	0	0	2082
8	0	0	2068
9	0	0	2060
10	0	0	2073
11	0	0	2072
12	0	0	2067
13	0	0	2062
14	0	0	2063
15	0	0	2068
16	0	0	2075
17	0	0	2052
18	0	0	2046
19	0	0	2054
20	0	0	2066
21	0	0	2080
22	0	0	2064
23	0	0	2066
24	0	0	2054
25	0	0	2055
26	0	0	2064
27	0	0	2052
28	0	0	2066
29	0	0	2074
30	0	0	2079
31	0	0	2070
32	0	0	2066
33	0	0	2078
34	0	0	2063
35	0	0	2052
36	0	0	2066
37	0	0	2066
38	0	0	2057
39	0	0	2075
40	0	0	2067
41	0	0	2080
42	0	0	2060
43	0	0	2059
44	0	0	2061
45	0	0	2062
46	0	0	2055
47	0	0	2059
48	0	0	2064
49	0	0	2065
50	0	0	2069
51	0	0	2066
52	0	0	2061
53	0	0	2062
54	0	0	2056
55	0	0	2060
56	0	0	2084
57	0	0	2088
58	0	0	2071
59	0	0	2056
60	0	0	2051
61	0	0	2066
62	0	0	2066
63	0	0	2060
64	0	0	2059
65	0	0	2067
66	0	0	2067
67	0	0	2066
68	0	0	2063
69	0	0	2061
70	0	0	2071
71	0	0	2068
72	0	0	2059
73	0	0	2061
74	0	0	2067
75	0	0	2067
76	0	0	2067
77	0	0	2074
78	0	0	2059
79	0	0	2067
80	0	0	2058
81	0	0	2058
82	0	0	2065
83	0	0	2068
84	0	0	2061
85	0	0	2072
86	0	0	2058
87	0	0	2073
88	0	0	2061
89	0	0	2070
90	0	0	2070
91	0	0	2073
92	0	0	2064
93	0	0	2062
94	0	0	2058
95	0	0	2059
96	0	0	2067
97	0	0	2065
98	0	0	2061
99	0	0	2072
100	0	0	2066
101	0	0	2076
102	0	0	2079
103	0	0	2054
104	0	0	2042
105	0	0	2076
106	0	0	2088
107	0	0	2063
108	0	0	2059
109	0	0	2057
110	0	0	2067
111	0	0	2062
112	0	0	2068
113	0	0	2066
114	0	0	2071
115	0	0	2069
116	0	0	2053
117	0	0	2058
118	0	0	2063
119	0	0	2059
120	0	0	2075
121	0	0	2077
122	0	0	2066
123	0	0	2060
124	0	0	2066
125	0	0	2075
126	0	0	2071
127	0	0	2062
0	0	0	2064
1	0	0	2064
2	0	0	2065
3	0	0	2065
4	0	0	2063
5	0	0	2059
6	0	0	2062
7	0	0	2066
8	0	0	2074
9	0	0	2079
10	0	0	2065
11	0	0	2066
12	0	0	2064
13	0	0	2072
14	0	0	2063
15	0	0	2069
16	0	0	2056
17	0	0	2059
18	0	0	2057
19	0	0	2074
20	0	0	2067
21	0	0	2065
22	0	0	2065
23	0	0	2064
24	0	0	2055
25	0	0	2057
26	0	0	2072
27	0	0	2058
28	0	0	2068
29	0	0	2091
30	0	0	2061
31	0	0	2063
32	0	0	2061
33	0	0	2065
34	0	0	2073
35	0	0	2072
36	0	0	2057
37	0	0	2058
38	0	0	2061
39	0	0	2069
40	0	0	2061
41	0	0	2061
42	0	0	2057
43	0	0	2079
44	0	0	2069
45	0	0	2087
46	0	0	2069
47	0	0	2068
48	0	0	2060
49	0	0	2048
50	0	0	2062
51	0	0	2069
52	0	0	2074
53	0	0	2060
54	0	0	2058
55	0	0	2076
56	0	0	2064
57	0	0	2072
58	0	0	2060
59	0	0	2076
60	0	0	2060
61	0	0	2063
62	0	0	2062
63	0	0	2066
64	0	0	2079
65	0	0	2064
66	0	0	2059
67	0	0	2059
68	0	0	2062
69	0	0	2064
70	0	0	2065
71	0	0	2073
72	0	0	2068
73	0	0	2066
74	0	0	2061
75	0	0	2060
76	0	0	2069
77	0	0	2072
78	0	0	2068
79	0	0	2058
80	0	0	2058
81	0	0	2065
82	0	0	2066
83	0	0	2069
84	0	0	2064
85	0	0	2061
86	0	0	2061
87	0	0	2064
88	0	0	2068
89	0	0	2070
90	0	0	2066
91	0	0	2078
92	0	0	2062
93	0	0	2060
94	0	0	2069
95	0	0	2069
96	0	0	2057
97	0	0	2061
98	0	0	2069
99	0	0	2067
100	0	0	2058
101	0	0	2064
102	0	0	2075
103	0	0	2071
104	0	0	2061
105	0	0	2052
106	0	0	2075
107	0	0	2071
108	0	0	2061
109	0	0	2067
110	0	0	2079
111	0	0	2064
112	0	0	2063
113	0	0	2060
114	0	0	2062
115	0	0	2058
116	0	0	2065
117	0	0	2066
118	0	0	2068
119	0	0	2049
120	0	0	2070
121	0	0	2099
122	0	0	2065
123	0	0	2067
124	0	0	2058
125	0	0	2056
126	0	0	2063
127	0	0	2063
0	0	0	2064
1	0	0	2080
2	0	0	2077
3	0	0	2056
4	0	0	2057
5	0	0	2065
6	0	0	2069
7	0	0	2066
8	0	0	2062
9	0	0	2060
10	0	0	2066
11	0	0	2064
12	0	0	2066
13	0	0	2063
14	0	0	2069
15	0	0	2067
16	0	0	2069
17	0	0	2066
18	0	0	2064
19	0	0	2065
20	0	0	2061
21	0	0	2062
22	0	0	2067
23	0	0	2080
24	0	0	2064
25	0	0	2056
26	0	0	2064
27	0	0	2073
28	0	0	2074
29	0	0	2061
30	0	0	2064
31	0	0	2073
32	0	0	2071
33	0	0	2070
34	0	0	2068
35	0	0	2061
36	0	0	2058
37	0	0	2064
38	0	0	2055
39	0	0	2067
40	0	0	2076
41	0	0	2075
42	0	0	2061
43	0	0	2057
44	0	0	2049
45	0	0	2063
46	0	0	2056
47	0	0	2072
48	0	0	2073
49	0	0	2082
50	0	0	2066
51	0	0	2060
52	0	0	2078
53	0	0	2070
54	0	0	2075
55	0	0	2079
56	0	0	2058
57	0	0	2054
58	0	0	2051
59	0	0	2049
60	0	0	2063
61	0	0	2074
62	0	0	2072
63	0	0	2055
64	0	0	2064
65	0	0	2071
66	0	0	2063
67	0	0	2059
68	0	0	2065
69	0	0	2064
70	0	0	2067
71	0	0	2053
72	0	0	2057
73	0	0	2072
74	0	0	2078
75	0	0	2063
76	0	0	2052
77	0	0	2066
78	0	0	2054
79	0	0	2077
80	0	0	2088
81	0	0	2075
82	0	0	2070
83	0	0	2064
84	0	0	2062
85	0	0	2063
86	0	0	2053
87	0	0	2050
88	0	0	2074
89	0	0	2084
90	0	0	2073
91	0	0	2059
92	0	0	2062
93	0	0	2071
94	0	0	2063
95	0	0	2063
96	0	0	2065
97	0	0	2073
98	0	0	2055
99	0	0	2051
100	0	0	2048
101	0	0	2058
102	0	0	2073
103	0	0	2066
104	0	0	2078
105	0	0	2078
106	0	0	2103
107	0	0	2089
108	0	0	2087
109	0	0	2051
110	0	0	2032
111	0	0	2038
112	0	0	2073
113	0	0	2079
114	0	0	2039
115	0	0	2057
116	0	0	2070
117	0	0	2063
118	0	0	2069
119	0	0	2079
120	0	0	2082
121	0	0	2093
122	0	0	2084
123	0	0	2082
124	0	0	2069
125	0	0	2042
126	0	0	2037
127	0	0	2030
0	0	0	2049
1	0	0	2072
2	0	0	2049
3	0	0	2069
4	0	0	2111
5	0	0	2102
6	0	0	2069
7	0	0	2066
8	0	0	2075
9	0	0	2064
10	0	0	2034
11	0	0	2030
12	0	0	2044
13	0	0	2044
14	0	0	2045
15	0	0	2039
16	0	0	2044
17	0	0	2066
18	0	0	2094
19	0	0	2127
20	0	0	2131
21	0	0	2108
22	0	0	2076
23	0	0	2064
24	0	0	2090
25	0	0	2050
26	0	0	2053
27	0	0	2010
28	0	0	2042
29	0	0	2080
30	0	0	2055
31	0	0	2038
32	0	0	2044
33	0	0	2091
34	0	0	2083
35	0	0	2090
36	0	0	2075
37	0	0	2057
38	0	0	2036
39	0	0	2053
40	0	0	2068
41	0	0	2087
42	0	0	2098
43	0	0	2090
44	0	0	2084
45	0	0	2072
46	0	0	2056
47	0	0	2023
48	0	0	2039
49	0	0	2056
50	0	0	2031
51	0	0	2015
52	0	0	2044
53	0	0	2057
54	0	0	2087
55	0	0	2106
56	0	0	2097
57	0	0	2129
58	0	0	2107
59	0	0	2120
60	0	0	2072
61	0	0	2052
62	0	0	2021
63	0	0	2050
64	0	0	2050
65	0	0	2053
66	0	0	2033
67	0	0	2040
68	0	0	2034
69	0	0	2081
70	0	0	2157
71	0	0	2197
72	0	0	2122
73	0	0	2022
74	0	0	1956
75	0	0	1934
76	0	0	1979
77	0	0	2015
78	0	0	2032
79	0	0	2068
80	0	0	2120
81	0	0	2146
82	0	0	2169
83	0	0	2190
84	0	0	2162
85	0	0	2088
86	0	0	1972
87	0	0	1949
88	0	0	1996
89	0	0	2006
90	0	0	2018
91	0	0	2022
92	0	0	2058
93	0	0	2082
94	0	0	2087
95	0	0	2120
96	0	0	2078
97	0	0	2070
98	0	0	2065
99	0	0	2073
100	0	0	2089
101	0	0	2116
102	0	0	2096
103	0	0	2098
104	0	0	2081
105	0	0	2030
106	0	0	1995
107	0	0	2025
108	0	0	2029
109	0	0	2058
110	0	0	2076
111	0	0	2066
112	0	0	2029
113	0	0	2043
114	0	0	2052
115	0	0	2100
116	0	0	2166
117	0	0	2156
118	0	0	2133
119	0	0	2097
120	0	0	2028
121	0	0	1993
122	0	0	2005
123	0	0	2053
124	0	0	2024
125	0	0	2035
126	0	0	2064
127	0	0	2078
0	0	0	2112
1	0	0	2135
2	0	0	2110
3	0	0	2079
4	0	0	2050
5	0	0	2029
6	0	0	2081
7	0	0	2004
8	0	0	1982
9	0	0	2014
10	0	0	2031
11	0	0	2055
12	0	0	2096
13	0	0	2117
14	0	0	2121
15	0	0	2111
16	0	0	2098
17	0	0	2056
18	0	0	2056
19	0	0	2018
20	0	0	2038
21	0	0	2043
22	0	0	2065
23	0	0	2093
24	0	0	2098
25	0	0	2073
26	0	0	2031
27	0	0	2004
28	0	0	2035
29	0	0	2059
30	0	0	2070
31	0	0	2091
32	0	0	2135
33	0	0	2151
34	0	0	2163
35	0	0	2100
36	0	0	2011
37	0	0	2016
38	0	0	2011
39	0	0	2026
40	0	0	2060
41	0	0	2061
42	0	0	2063
43	0	0	2027
44	0	0	2049
45	0	0	2054
46	0	0	2060
47	0	0	2081
48	0	0	2094
49	0	0	2072
50	0	0	2077
51	0	0	2086
52	0	0	2073
53	0	0	2067
54	0	0	2042
55	0	0	2032
56	0	0	2066
57	0	0	2067
58	0	0	2067
59	0	0	2077
60	0	0	2080
61	0	0	2098
62	0	0	2099
63	0	0	2069
64	0	0	2066
65	0	0	2058
66	0	0	2053
67	0	0	2048
68	0	0	2083
69	0	0	2121
70	0	0	2099
71	0	0	2060
72	0	0	2034
73	0	0	2104
74	0	0	2094
75	0	0	2044
76	0	0	2018
77	0	0	2016
78	0	0	2027
79	0	0	2052
80	0	0	2058
81	0	0	2066
82	0	0	2096
83	0	0	2115
84	0	0	2089
85	0	0	2083
86	0	0	2090
87	0	0	2077
88	0	0	2059
89	0	0	2048
90	0	0	2065
91	0	0	2043
92	0	0	2040
93	0	0	2066
94	0	0	2079
95	0	0	2069
96	0	0	2090
97	0	0	2048
98	0	0	2057
99	0	0	2073
100	0	0	2057
101	0	0	2069
102	0	0	2085
103	0	0	2080
104	0	0	2077
105	0	0	2043
106	0	0	2061
107	0	0	2040
108	0	0	2034
109	0	0	2071
110	0	0	2078
111	0	0	2118
112	0	0	2080
113	0	0	2063
114	0	0	2074
115	0	0	2042
116	0	0	2041
117	0	0	2066
118	0	0	2082
119	0	0	2052
120	0	0	2071
121	0	0	2060
122	0	0	2061
123	0	0	2082
124	0	0	2052
125	0	0	2037
126	0	0	2068
127	0	0	2070
0	0	0	2087
1	0	0	2073
2	0	0	2052
3	0	0	2056
4	0	0	2065
5	0	0	2064
6	0	0	2067
7	0	0	2065
8	0	0	2062
9	0	0	2060
10	0	0	2079
11	0	0	2063
12	0	0	2056
13	0	0	2054
14	0	0	2076
15	0	0	2074
16	0	0	2055
17	0	0	2057
18	0	0	2096
19	0	0	2078
20	0	0	2059
21	0	0	2050
22	0	0	2056
23	0	0	2069
24	0	0	2093
25	0	0	2081
26	0	0	2072
27	0	0	2082
28	0	0	2069
29	0	0	2038
30	0	0	2053
31	0	0	2044
32	0	0	2072
33	0	0	2064
34	0	0	2057
35	0	0	2057
36	0	0	2059
37	0	0	2045
38	0	0	2046
39	0	0	2068
40	0	0	2087
41	0	0	2093
42	0	0	2077
43	0	0	2092
44	0	0	2092
45	0	0	2072
46	0	0	2056
47	0	0	2041
48	0	0	2030
49	0	0	2035
50	0	0	2034
51	0	0	2067
52	0	0	2067
53	0	0	2090
54	0	0	2093
55	0	0	2102
56	0	0	2128
57	0	0	2058
58	0	0	2044
59	0	0	2031
60	0	0	2053
61	0	0	2080
62	0	0	2070
63	0	0	2052
64	0	0	2055
65	0	0	2055
66	0	0	2055
67	0	0	2065
68	0	0	2055
69	0	0	2068
70	0	0	2066
71	0	0	2069
72	0	0	2070
73	0	0	2078
74	0	0	2061
75	0	0	2078
76	0	0	2061
77	0	0	2063
78	0	0	2091
79	0	0	2084
80	0	0	2053
81	0	0	2052
82	0	0	2062
83	0	0	2060
84	0	0	2072
85	0	0	2074
86	0	0	2060
87	0	0	2034
88	0	0	2048
89	0	0	2076
90	0	0	2104
91	0	0	2056
92	0	0	2062
93	0	0	2088
94	0	0	2086
95	0	0	2065
96	0	0	2079
97	0	0	2072
98	0	0	2051
99	0	0	2051
100	0	0	2060
101	0	0	2044
102	0	0	2056
103	0	0	2029
104	0	0	2054
105	0	0	2054
106	0	0	2089
107	0	0	2106
108	0	0	2094
109	0	0	2084
110	0	0	2084
111	0	0	2041
112	0	0	2058
113	0	0	2067
114	0	0	2073
115	0	0	2069
116	0	0	2048
117	0	0	2051
118	0	0	2052
119	0	0	2040
120	0	0	2055
121	0	0	2064
122	0	0	2079
123	0	0	2079
124	0	0	2085
125	0	0	2068
126	0	0	2064
127	0	0	2068
0	0	0	2049
1	0	0	2062
2	0	0	2046
3	0	0	2059
4	0	0	2069
5	0	0	2077
6	0	0	2088
7	0	0	2105
8	0	0	2083
9	0	0	2049
10	0	0	2043
11	0	0	2043
12	0	0	2056
13	0	0	2065
14	0	0	2057
15	0	0	2061
16	0	0	2058
17	0	0	2056
18	0	0	2065
19	0	0	2084
20	0	0	2080
21	0	0	2073
22	0	0	2063
23	0	0	2051
24	0	0	2057
25	0	0	2069
26	0	0	2078
27	0	0	2055
28	0	0	2055
29	0	0	2059
30	0	0	2055
31	0	0	2068
32	0	0	2092
33	0	0	2072
34	0	0	2070
35	0	0	2080
36	0	0	2058
37	0	0	2072
38	0	0	2079
39	0	0	2067
40	0	0	2072
41	0	0	2078
42	0	0	2065
43	0	0	2048
44	0	0	2059
45	0	0	2048
46	0	0	2064
47	0	0	2078
48	0	0	2051
49	0	0	2052
50	0	0	2055
51	0	0	2079
52	0	0	2075
53	0	0	2096
54	0	0	2081
55	0	0	2040
56	0	0	2058
57	0	0	2053
58	0	0	2068
59	0	0	2073
60	0	0	2091
61	0	0	2102
62	0	0	2062
63	0	0	2032
64	0	0	2045
65	0	0	2050
66	0	0	2054
67	0	0	2070
68	0	0	2062
69	0	0	2063
70	0	0	2061
71	0	0	2068
72	0	0	2035
73	0	0	2087
74	0	0	2089
75	0	0	2067
76	0	0	2061
77	0	0	2074
78	0	0	2081
79	0	0	2092
80	0	0	2073
81	0	0	2057
82	0	0	2061
83	0	0	2035
84	0	0	2040
85	0	0	2064
86	0	0	2078
87	0	0	2074
88	0	0	2093
89	0	0	2064
90	0	0	2048
91	0	0	2061
92	0	0	2071
93	0	0	2068
94	0	0	2045
95	0	0	2049
96	0	0	2067
97	0	0	2071
98	0	0	2076
99	0	0	2054
100	0	0	2061
101	0	0	2078
102	0	0	2066
103	0	0	2060
104	0	0	2081
105	0	0	2069
106	0	0	2058
107	0	0	2065
108	0	0	2068
109	0	0	2098
110	0	0	2071
111	0	0	2073
112	0	0	2077
113	0	0	2077
114	0	0	2087
115	0	0	2073
116	0	0	2084
117	0	0	2069
118	0	0	2069
119	0	0	2071
120	0	0	2056
121	0	0	2049
122	0	0	2049
123	0	0	2055
124	0	0	2053
125	0	0	2054
126	0	0	2070
127	0	0	2081
0	0	0	2077
1	0	0	2042
2	0	0	2053
3	0	0	2065
4	0	0	2059
5	0	0	2064
6	0	0	2083
7	0	0	2063
8	0	0	2070
9	0	0	2075
10	0	0	2057
11	0	0	2046
12	0	0	2047
13	0	0	2050
14	0	0	2054
15	0	0	2058
16	0	0	2070
17	0	0	2081
18	0	0	2062
19	0	0	2077
20	0	0	2083
21	0	0	2074
22	0	0	2066
23	0	0	2064
24	0	0	2060
25	0	0	2062
26	0	0	2060
27	0	0	2049
28	0	0	2061
29	0	0	2062
30	0	0	2055
31	0	0	2075
32	0	0	2074
33	0	0	2067
34	0	0	2074
35	0	0	2085
36	0	0	2076
37	0	0	2068
38	0	0	2054
39	0	0	2067
40	0	0	2090
41	0	0	2078
42	0	0	2063
43	0	0	2050
44	0	0	2051
45	0	0	2058
46	0	0	2062
47	0	0	2069
48	0	0	2076
49	0	0	2062
50	0	0	2052
51	0	0	2054
52	0	0	2066
53	0	0	2068
54	0	0	2065
55	0	0	2057
56	0	0	2072
57	0	0	2079
58	0	0	2098
59	0	0	2094
60	0	0	2070
61	0	0	2056
62	0	0	2051
63	0	0	2065
64	0	0	2067
65	0	0	2064
66	0	0	2064
67	0	0	2068
68	0	0	2066
69	0	0	2065
70	0	0	2044
71	0	0	2062
72	0	0	2063
73	0	0	2076
74	0	0	2074
75	0	0	2067
76	0	0	2078
77	0	0	2084
78	0	0	2073
79	0	0	2066
80	0	0	2061
81	0	0	2050
82	0	0	2058
83	0	0	2071
84	0	0	2065
85	0	0	2067
86	0	0	2064
87	0	0	2060
88	0	0	2064
89	0	0	2068
90	0	0	2066
91	0	0	2069
92	0	0	2078
93	0	0	2070
94	0	0	2060
95	0	0	2057
96	0	0	2065
97	0	0	2064
98	0	0	2070
99	0	0	2078
100	0	0	2069
101	0	0	2062
102	0	0	2064
103	0	0	2062
104	0	0	2064
105	0	0	2070
106	0	0	2074
107	0	0	2065
108	0	0	2065
109	0	0	2059
110	0	0	2058
111	0	0	2072
112	0	0	2075
113	0	0	2063
114	0	0	2055
115	0	0	2059
116	0	0	2065
117	0	0	2067
118	0	0	2073
119	0	0	2067
120	0	0	2073
121	0	0	2066
122	0	0	2061
123	0	0	2070
124	0	0	2066
125	0	0	2060
126	0	0	2060
127	0	0	2069
0	0	0	2066
1	0	0	2058
2	0	0	2069
3	0	0	2060
4	0	0	2065
5	0	0	2077
6	0	0	2050
7	0	0	2059
8	0	0	2080
9	0	0	2075
10	0	0	2065
11	0	0	2071
12	0	0	2059
13	0	0	2058
14	0	0	2062
15	0	0	2079
16	0	0	2077
17	0	0	2064
18	0	0	2057
19	0	0	2058
20	0	0	2060
21	0	0	2064
22	0	0	2072
23	0	0	2049
24	0	0	2048
25	0	0	2091
26	0	0	2075
27	0	0	2071
28	0	0	2067
29	0	0	2058
30	0	0	2066
31	0	0	2071
32	0	0	2064
33	0	0	2061
34	0	0	2066
35	0	0	2064
36	0	0	2055
37	0	0	2056
38	0	0	2056
39	0	0	2052
40	0	0	2054
41	0	0	2078
42	0	0	2092
43	0	0	2097
44	0	0	2074
45	0	0	2083
46	0	0	2083
47	0	0	2066
48	0	0	2052
49	0	0	2042
50	0	0	2051
51	0	0	2055
52	0	0	2049
53	0	0	2082
54	0	0	2061
55	0	0	2065
56	0	0	2063
57	0	0	2066
58	0	0	2069
59	0	0	2072
60	0	0	2061
61	0	0	2064
62	0	0	2067
63	0	0	2061
64	0	0	2070
65	0	0	2063
66	0	0	2067
67	0	0	2070
68	0	0	2065
69	0	0	2048
70	0	0	2059
71	0	0	2076
72	0	0	2066
73	0	0	2072
74	0	0	2071
75	0	0	2071
76	0	0	2059
77	0	0	2059
78	0	0	2070
79	0	0	2069
80	0	0	2066
81	0	0	2073
82	0	0	2065
83	0	0	2064
84	0	0	2055
85	0	0	2057
86	0	0	2074
87	0	0	2077
88	0	0	2072
89	0	0	2063
90	0	0	2057
91	0	0	2063
92	0	0	2057
93	0	0	2058
94	0	0	2062
95	0	0	2070
96	0	0	2073
97	0	0	2066
98	0	0	2062
99	0	0	2059
100	0	0	2063
101	0	0	2067
102	0	0	2069
103	0	0	2064
104	0	0	2071
105	0	0	2065
106	0	0	2062
107	0	0	2066
108	0	0	2070
109	0	0	2064
110	0	0	2062
111	0	0	2067
112	0	0	2067
113	0	0	2067
114	0	0	2053
115	0	0	2070
116	0	0	2082
117	0	0	2070
118	0	0	2061
119	0	0	2069
120	0	0	2068
121	0	0	2064
122	0	0	2061
123	0	0	2069
124	0	0	2067
125	0	0	2056
126	0	0	2064
127	0	0	2074
0	0	0	2064
1	0	0	2059
2	0	0	2066
3	0	0	2067
4	0	0	2067
5	0	0	2064
6	0	0	2074
7	0	0	2060
8	0	0	2068
9	0	0	2045
10	0	0	2060
11	0	0	2073
12	0	0	2078
13	0	0	2070
14	0	0	2066
15	0	0	2069
16	0	0	2059
17	0	0	2061
18	0	0	2072
19	0	0	2068
20	0	0	2062
21	0	0	2059
22	0	0	2064
23	0	0	2070
24	0	0	2055
25	0	0	2073
26	0	0	2066
27	0	0	2070
28	0	0	2064
29	0	0	2062
30	0	0	2063
31	0	0	2060
32	0	0	2070
33	0	0	2065
34	0	0	2061
35	0	0	2063
36	0	0	2071
37	0	0	2069
38	0	0	2071
39	0	0	2075
40	0	0	2054
41	0	0	2059
42	0	0	2059
43	0	0	2075
44	0	0	2065
45	0	0	2068
46	0	0	2054
47	0	0	2079
48	0	0	2067
49	0	0	2069
50	0	0	2052
51	0	0	2066
52	0	0	2078
53	0	0	2063
54	0	0	2057
55	0	0	2067
56	0	0	2058
57	0	0	2071
58	0	0	2067
59	0	0	2071
60	0	0	2060
61	0	0	2051
62	0	0	2056
63	0	0	2072
64	0	0	2064
65	0	0	2071
66	0	0	2058
67	0	0	2056
68	0	0	2069
69	0	0	2075
70	0	0	2051
71	0	0	2069
72	0	0	2083
73	0	0	2064
74	0	0	2071
75	0	0	2062
76	0	0	2057
77	0	0	2069
78	0	0	2061
79	0	0	2061
80	0	0	2056
81	0	0	2062
82	0	0	2078
83	0	0	2080
84	0	0	2070
85	0	0	2067
86	0	0	2056
87	0	0	2059
88	0	0	2071
89	0	0	2074
90	0	0	2052
91	0	0	2072
92	0	0	2070
93	0	0	2068
94	0	0	2054
95	0	0	2067
96	0	0	2073
97	0	0	2066
98	0	0	2063
99	0	0	2065
100	0	0	2060
101	0	0	2068
102	0	0	2070
103	0	0	2069
104	0	0	2073
105	0	0	2064
106	0	0	2065
107	0	0	2066
108	0	0	2074
109	0	0	2059
110	0	0	2062
111	0	0	2077
112	0	0	2059
113	0	0	2061
114	0	0	2072
115	0	0	2069
116	0	0	2063
117	0	0	2065
118	0	0	2072
119	0	0	2065
120	0	0	2065
121	0	0	2071
122	0	0	2060
123	0	0	2068
124	0	0	2064
125	0	0	2064
126	0	0	2065
127	0	0	2064
0	0	0	2065
1	0	0	2059
2	0	0	2062
3	0	0	2072
4	0	0	2073
5	0	0	2069
6	0	0	2065
7	0	0	2069
8	0	0	2056
9	0	0	2072
10	0	0	2071
11	0	0	2077
12	0	0	2065
13	0	0	2044
14	0	0	2048
15	0	0	2080
16	0	0	2078
17	0	0	2077
18	0	0	2061
19	0	0	2061
20	0	0	2059
21	0	0	2056
22	0	0	2070
23	0	0	2070
24	0	0	2075
25	0	0	2055
26	0	0	2068
27	0	0	2072
28	0	0	2064
29	0	0	2091
30	0	0	2058
31	0	0	2052
32	0	0	2054
33	0	0	2062
34	0	0	2068
35	0	0	2068
36	0	0	2065
37	0	0	2071
38	0	0	2063
39	0	0	2068
40	0	0	2065
41	0	0	2064
42	0	0	2065
43	0	0	2068
44	0	0	2067
45	0	0	2070
46	0	0	2063
47	0	0	2069
48	0	0	2064
49	0	0	2064
50	0	0	2071
51	0	0	2049
52	0	0	2060
53	0	0	2077
54	0	0	2059
55	0	0	2073
56	0	0	2076
57	0	0	2058
58	0	0	2064
59	0	0	2071
60	0	0	2057
61	0	0	2069
62	0	0	2064
63	0	0	2054
64	0	0	2062
65	0	0	2067
66	0	0	2080
67	0	0	2062
68	0	0	2060
69	0	0	2077
70	0	0	2066
71	0	0	2054
72	0	0	2058
73	0	0	2078
74	0	0	2078
75	0	0	2066
76	0	0	2067
77	0	0	2060
78	0	0	2055
79	0	0	2072
80	0	0	2059
81	0	0	2065
82	0	0	2062
83	0	0	2055
84	0	0	2062
85	0	0	2079
86	0	0	2078
87	0	0	2061
88	0	0	2062
89	0	0	2070
90	0	0	2062
91	0	0	2066
92	0	0	2065
93	0	0	2060
94	0	0	2068
95	0	0	2064
96	0	0	2067
97	0	0	2060
98	0	0	2054
99	0	0	2067
100	0	0	2073
101	0	0	2076
102	0	0	2068
103	0	0	2054
104	0	0	2047
105	0	0	2067
106	0	0	2049
107	0	0	2070
108	0	0	2090
109	0	0	2101
110	0	0	2091
111	0	0	2072
112	0	0	2058
113	0	0	2057
114	0	0	2056
115	0	0	2077
116	0	0	2079
117	0	0	2066
118	0	0	2041
119	0	0	2063
120	0	0	2058
121	0	0	2061
122	0	0	2054
123	0	0	2073
124	0	0	2075
125	0	0	2064
126	0	0	2046
127	0	0	2060
0	0	0	2058
1	0	0	2066
2	0	0	2071
3	0	0	2080
4	0	0	2072
5	0	0	2070
6	0	0	2071
7	0	0	2059
8	0	0	2058
9	0	0	2058
10	0	0	2069
11	0	0	2067
12	0	0	2060
13	0	0	2057
14	0	0	2075
15	0	0	2091
16	0	0	2052
17	0	0	2066
18	0	0	2081
19	0	0	2063
20	0	0	2061
21	0	0	2065
22	0	0	2059
23	0	0	2061
24	0	0	2065
25	0	0	2065
26	0	0	2065
27	0	0	2064
28	0	0	2065
29	0	0	2068
30	0	0	2071
31	0	0	2070
32	0	0	2060
33	0	0	2064
34	0	0	2069
35	0	0	2054
36	0	0	2066
37	0	0	2067
38	0	0	2059
39	0	0	2064
40	0	0	2064
41	0	0	2070
42	0	0	2065
43	0	0	2069
44	0	0	2080
45	0	0	2077
46	0	0	2068
47	0	0	2058
48	0	0	2055
49	0	0	2057
50	0	0	2057
51	0	0	2059
52	0	0	2064
53	0	0	2070
54	0	0	2071
55	0	0	2069
56	0	0	2059
57	0	0	2070
58	0	0	2086
59	0	0	2067
60	0	0	2074
61	0	0	2060
62	0	0	2060
63	0	0	2067
64	0	0	2056
65	0	0	2061
66	0	0	2065
67	0	0	2064
68	0	0	2090
69	0	0	2092
70	0	0	2073
71	0	0	2046
72	0	0	2058
73	0	0	2044
74	0	0	2053
75	0	0	2083
76	0	0	2073
77	0	0	2064
78	0	0	2076
79	0	0	2087
80	0	0	2073
81	0	0	2055
82	0	0	2056
83	0	0	2064
84	0	0	2067
85	0	0	2056
86	0	0	2052
87	0	0	2062
88	0	0	2058
89	0	0	2066
90	0	0	2057
91	0	0	2061
92	0	0	2050
93	0	0	2059
94	0	0	2065
95	0	0	2071
96	0	0	2084
97	0	0	2081
98	0	0	2068
99	0	0	2090
100	0	0	2097
101	0	0	2085
102	0	0	2051
103	0	0	2037
104	0	0	2059
105	0	0	2065
106	0	0	2062
107	0	0	2066
108	0	0	2068
109	0	0	2064
110	0	0	2070
111	0	0	2072
112	0	0	2064
113	0	0	2055
114	0	0	2058
115	0	0	2060
116	0	0	2068
117	0	0	2066
118	0	0	2057
119	0	0	2063
120	0	0	2049
121	0	0	2059
122	0	0	2055
123	0	0	2049
124	0	0	2064
125	0	0	2076
126	0	0	2087
127	0	0	2090
0	0	0	2098
1	0	0	2090
2	0	0	2078
3	0	0	2072
4	0	0	2060
5	0	0	2071
6	0	0	2063
7	0	0	2070
8	0	0	2043
9	0	0	2032
10	0	0	2036
11	0	0	2050
12	0	0	2066
13	0	0	2091
14	0	0	2075
15	0	0	2058
16	0	0	2054
17	0	0	2055
18	0	0	2067
19	0	0	2076
20	0	0	2096
21	0	0	2063
22	0	0	2047
23	0	0	2065
24	0	0	2050
25	0	0	2081
26	0	0	2081
27	0	0	2075
28	0	0	2048
29	0	0	2043
30	0	0	2029
31	0	0	2057
32	0	0	2081
33	0	0	2096
34	0	0	2105
35	0	0	2102
36	0	0	2096
37	0	0	2094
38	0	0	2067
39	0	0	2045
40	0	0	2051
41	0	0	2039
42	0	0	2039
43	0	0	2029
44	0	0	2032
45	0	0	2063
46	0	0	2043
47	0	0	2007
48	0	0	2020
49	0	0	2053
50	0	0	2068
51	0	0	2093
52	0	0	2110
53	0	0	2154
54	0	0	2217
55	0	0	2226
56	0	0	2152
57	0	0	2038
58	0	0	1959
59	0	0	1960
60	0	0	1991
61	0	0	2000
62	0	0	1995
63	0	0	2048
64	0	0	2076
65	0	0	2085
66	0	0	2059
67	0	0	2081
68	0	0	2065
69	0	0	2064
70	0	0	2093
71	0	0	2137
72	0	0	2167
73	0	0	2112
74	0	0	2057
75	0	0	2002
76	0	0	1992
77	0	0	1999
78	0	0	2012
79	0	0	2042
80	0	0	2056
81	0	0	2084
82	0	0	2100
83	0	0	2082
84	0	0	2107
85	0	0	2087
86	0	0	2063
87	0	0	2045
88	0	0	2035
89	0	0	2059
90	0	0	2084
91	0	0	2114
92	0	0	2129
93	0	0	2104
94	0	0	2039
95	0	0	2040
96	0	0	2061
97	0	0	1988
98	0	0	2004
99	0	0	2051
100	0	0	2082
101	0	0	2054
102	0	0	2068
103	0	0	2105
104	0	0	2131
105	0	0	2102
106	0	0	2062
107	0	0	2071
108	0	0	2091
109	0	0	2071
110	0	0	2051
111	0	0	2023
112	0	0	2015
113	0	0	2059
114	0	0	2082
115	0	0	2043
116	0	0	2026
117	0	0	2037
118	0	0	2052
119	0	0	2051
120	0	0	2070
121	0	0	2093
122	0	0	2091
123	0	0	2057
124	0	0	2046
125	0	0	2078
126	0	0	2096
127	0	0	2051
0	0	0	2064
1	0	0	2090
2	0	0	2074
3	0	0	2066
4	0	0	2082
5	0	0	2100
6	0	0	2089
7	0	0	2109
8	0	0	2105
9	0	0	2069
10	0	0	2039
11	0	0	2001
12	0	0	1984
13	0	0	2005
14	0	0	2026
15	0	0	2022
16	0	0	2039
17	0	0	2099
18	0	0	2164
19	0	0	2178
20	0	0	2166
21	0	0	2127
22	0	0	2050
23	0	0	2023
24	0	0	2002
25	0	0	1970
26	0	0	2000
27	0	0	2048
28	0	0	2044
29	0	0	2051
30	0	0	2087
31	0	0	2088
32	0	0	2133
33	0	0	2188
34	0	0	2116
35	0	0	2064
36	0	0	2067
37	0	0	2038
38	0	0	2045
39	0	0	2069
40	0	0	2030
41	0	0	2034
42	0	0	2057
43	0	0	2004
44	0	0	2045
45	0	0	2048
46	0	0	2068
47	0	0	2090
48	0	0	2098
49	0	0	2163
50	0	0	2138
51	0	0	2081
52	0	0	2068
53	0	0	2056
54	0	0	2031
55	0	0	2044
56	0	0	2043
57	0	0	2041
58	0	0	2054
59	0	0	2062
60	0	0	2060
61	0	0	2076
62	0	0	2077
63	0	0	2061
64	0	0	2054
65	0	0	2024
66	0	0	2048
67	0	0	2071
68	0	0	2081
69	0	0	2048
70	0	0	2049
71	0	0	2089
72	0	0	2116
73	0	0	2134
74	0	0	2063
75	0	0	2036
76	0	0	1999
77	0	0	2052
78	0	0	2034
79	0	0	2072
80	0	0	2134
81	0	0	2188
82	0	0	2103
83	0	0	2060
84	0	0	2069
85	0	0	2077
86	0	0	2056
87	0	0	2021
88	0	0	1995
89	0	0	2033
90	0	0	2038
91	0	0	2043
92	0	0	2060
93	0	0	2062
94	0	0	2073
95	0	0	2084
96	0	0	2049
97	0	0	2044
98	0	0	2052
99	0	0	2044
100	0	0	2048
101	0	0	2076
102	0	0	2086
103	0	0	2083
104	0	0	2079
105	0	0	2106
106	0	0	2142
107	0	0	2108
108	0	0	2033
109	0	0	1981
110	0	0	2008
111	0	0	2062
112	0	0	2093
113	0	0	2100
114	0	0	2061
115	0	0	1965
116	0	0	1928
117	0	0	2019
118	0	0	2074
119	0	0	2149
120	0	0	2216
121	0	0	2304
122	0	0	2193
123	0	0	2014
124	0	0	1976
125	0	0	2037
126	0	0	2086
127	0	0	2013
0	0	0	1980
1	0	0	2042
2	0	0	2038
3	0	0	2061
4	0	0	2022
5	0	0	2038
6	0	0	2040
7	0	0	2057
8	0	0	2042
9	0	0	2087
10	0	0	2111
11	0	0	2067
12	0	0	2097
13	0	0	2110
14	0	0	2064
15	0	0	2034
16	0	0	2034
17	0	0	2050
18	0	0	2050
19	0	0	2048
20	0	0	2082
21	0	0	2116
22	0	0	2072
23	0	0	2048
24	0	0	2033
25	0	0	2063
26	0	0	2067
27	0	0	2088
28	0	0	2077
29	0	0	2092
30	0	0	2086
31	0	0	2045
32	0	0	2059
33	0	0	2066
34	0	0	2058
35	0	0	2049
36	0	0	2059
37	0	0	2079
38	0	0	2069
39	0	0	2075
40	0	0	2059
41	0	0	2058
42	0	0	2068
43	0	0	2066
44	0	0	2049
45	0	0	2057
46	0	0	2067
47	0	0	2089
48	0	0	2076
49	0	0	2044
50	0	0	2045
51	0	0	2075
52	0	0	2081
53	0	0	2097
54	0	0	2064
55	0	0	2066
56	0	0	2073
57	0	0	2060
58	0	0	2031
59	0	0	2022
60	0	0	2020
61	0	0	2044
62	0	0	2045
63	0	0	2083
64	0	0	2134
65	0	0	2087
66	0	0	2054
67	0	0	2074
68	0	0	2133
69	0	0	2101
70	0	0	2031
71	0	0	2041
72	0	0	2086
73	0	0	2041
74	0	0	2032
75	0	0	2048
76	0	0	2070
77	0	0	2086
78	0	0	2063
79	0	0	2106
80	0	0	2073
81	0	0	2026
82	0	0	2037
83	0	0	2062
84	0	0	2064
85	0	0	2030
86	0	0	2087
87	0	0	2082
88	0	0	2070
89	0	0	2078
90	0	0	2084
91	0	0	2091
92	0	0	2098
93	0	0	2078
94	0	0	2060
95	0	0	2122
96	0	0	2080
97	0	0	2037
98	0	0	2034
99	0	0	2042
100	0	0	2044
101	0	0	2063
102	0	0	2055
103	0	0	2054
104	0	0	2048
105	0	0	2047
106	0	0	2016
107	0	0	2054
108	0	0	2084
109	0	0	2082
110	0	0	2139
111	0	0	2135
112	0	0	2157
113	0	0	2074
114	0	0	2009
115	0	0	2038
116	0	0	2038
117	0	0	2043
118	0	0	2032
119	0	0	2043
120	0	0	2040
121	0	0	2071
122	0	0	2103
123	0	0	2083
124	0	0	2069
125	0	0	2055
126	0	0	2036
127	0	0	2039
0	0	0	2059
1	0	0	2099
2	0	0	2115
3	0	0	2080
4	0	0	2070
5	0	0	2046
6	0	0	2050
7	0	0	2079
8	0	0	2067
9	0	0	2054
10	0	0	2036
11	0	0	2052
12	0	0	2069
13	0	0	2078
14	0	0	2062
15	0	0	2066
16	0	0	2078
17	0	0	2054
18	0	0	2079
19	0	0	2075
20	0	0	2080
21	0	0	2058
22	0	0	2057
23	0	0	2060
24	0	0	2068
25	0	0	2043
26	0	0	2052
27	0	0	2074
28	0	0	2060
29	0	0	2082
30	0	0	2067
31	0	0	2053
32	0	0	2016
33	0	0	2121
34	0	0	2102
35	0	0	2105
36	0	0	2113
37	0	0	2105
38	0	0	2080
39	0	0	2036
40	0	0	2027
41	0	0	2032
42	0	0	2046
43	0	0	2044
44	0	0	2044
45	0	0	2069
46	0	0	2062
47	0	0	2030
48	0	0	2038
49	0	0	2065
50	0	0	2051
51	0	0	2080
52	0	0	2104
53	0	0	2154
54	0	0	2094
55	0	0	2048
56	0	0	2055
57	0	0	2056
58	0	0	2030
59	0	0	2064
60	0	0	2096
61	0	0	2072
62	0	0	2089
63	0	0	2086
64	0	0	2053
65	0	0	2043
66	0	0	2048
67	0	0	2057
68	0	0	2058
69	0	0	2074
70	0	0	2070
71	0	0	2056
72	0	0	2056
73	0	0	2059
74	0	0	2064
75	0	0	2078
76	0	0	2084
77	0	0	2064
78	0	0	2063
79	0	0	2061
80	0	0	2057
81	0	0	2052
82	0	0	2106
83	0	0	2113
84	0	0	2051
85	0	0	2041
86	0	0	2070
87	0	0	2067
88	0	0	2075
89	0	0	2063
90	0	0	2054
91	0	0	2054
92	0	0	2059
93	0	0	2065
94	0	0	2059
95	0	0	2076
96	0	0	2096
97	0	0	2077
98	0	0	2094
99	0	0	2074
100	0	0	2043
101	0	0	2041
102	0	0	2046
103	0	0	2048
104	0	0	2060
105	0	0	2078
106	0	0	2057
107	0	0	2061
108	0	0	2074
109	0	0	2074
110	0	0	2046
111	0	0	2058
112	0	0	2073
113	0	0	2083
114	0	0	2075
115	0	0	2034
116	0	0	2056
117	0	0	2044
118	0	0	2044
119	0	0	2065
120	0	0	2092
121	0	0	2107
122	0	0	2105
123	0	0	2110
124	0	0	2123
125	0	0	2067
126	0	0	2032
127	0	0	2040
0	0	0	2037
1	0	0	2054
2	0	0	2061
3	0	0	2055
4	0	0	2049
5	0	0	2053
6	0	0	2054
7	0	0	2065
8	0	0	2055
9	0	0	2070
10	0	0	2079
11	0	0	2089
12	0	0	2073
13	0	0	2062
14	0	0	2060
15	0	0	2060
16	0	0	2068
17	0	0	2073
18	0	0	2076
19	0	0	2071
20	0	0	2069
21	0	0	2072
22	0	0	2061
23	0	0	2052
24	0	0	2042
25	0	0	2080
26	0	0	2081
27	0	0	2068
28	0	0	2060
29	0	0	2061
30	0	0	2078
31	0	0	2068
32	0	0	2062
33	0	0	2072
34	0	0	2058
35	0	0	2063
36	0	0	2065
37	0	0	2073
38	0	0	2065
39	0	0	2058
40	0	0	2067
41	0	0	2072
42	0	0	2066
43	0	0	2067
44	0	0	2065
45	0	0	2066
46	0	0	2062
47	0	0	2063
48	0	0	2066
49	0	0	2069
50	0	0	2066
51	0	0	2065
52	0	0	2071
53	0	0	2069
54	0	0	2067
55	0	0	2069
56	0	0	2066
57	0	0	2055
58	0	0	2062
59	0	0	2072
60	0	0	2071
61	0	0	2074
62	0	0	2065
63	0	0	2081
64	0	0	2066
65	0	0	2056
66	0	0	2054
67	0	0	2063
68	0	0	2068
69	0	0	2064
70	0	0	2075
71	0	0	2097
72	0	0	2097
73	0	0	2052
74	0	0	2048
75	0	0	2066
76	0	0	2064
77	0	0	2048
78	0	0	2041
79	0	0	2051
80	0	0	2059
81	0	0	2067
82	0	0	2087
83	0	0	2088
84	0	0	2097
85	0	0	2086
86	0	0	2059
87	0	0	2064
88	0	0	2052
89	0	0	2060
90	0	0	2051
91	0	0	2052
92	0	0	2094
93	0	0	2062
94	0	0	2055
95	0	0	2056
96	0	0	2064
97	0	0	2064
98	0	0	2063
99	0	0	2063
100	0	0	2056
101	0	0	2053
102	0	0	2068
103	0	0	2075
104	0	0	2069
105	0	0	2060
106	0	0	2056
107	0	0	2065
108	0	0	2065
109	0	0	2075
110	0	0	2060
111	0	0	2065
112	0	0	2066
113	0	0	2080
114	0	0	2067
115	0	0	2078
116	0	0	2070
117	0	0	2062
118	0	0	2053
119	0	0	2048
120	0	0	2074
121	0	0	2076
122	0	0	2068
123	0	0	2056
124	0	0	2062
125	0	0	2069
126	0	0	2076
127	0	0	2076
0	0	0	2075
1	0	0	2058
2	0	0	2053
3	0	0	2067
4	0	0	2059
5	0	0	2056
6	0	0	2057
7	0	0	2065
8	0	0	2092
9	0	0	2075
10	0	0	2053
11	0	0	2068
12	0	0	2064
13	0	0	2063
14	0	0	2059
15	0	0	2063
16	0	0	2060
17	0	0	2075
18	0	0	2074
19	0	0	2081
20	0	0	2062
21	0	0	2073
22	0	0	2063
23	0	0	2059
24	0	0	2054
25	0	0	2061
26	0	0	2083
27	0	0	2071
28	0	0	2057
29	0	0	2065
30	0	0	2063
31	0	0	2067
32	0	0	2068
33	0	0	2061
34	0	0	2059
35	0	0	2065
36	0	0	2068
37	0	0	2078
38	0	0	2082
39	0	0	2054
40	0	0	2072
41	0	0	2090
42	0	0	2060
43	0	0	2043
44	0	0	2059
45	0	0	2057
46	0	0	2062
47	0	0	2062
48	0	0	2074
49	0	0	2061
50	0	0	2062
51	0	0	2063
52	0	0	2068
53	0	0	2080
54	0	0	2098
55	0	0	2063
56	0	0	2052
57	0	0	2076
58	0	0	2059
59	0	0	2053
60	0	0	2049
61	0	0	2057
62	0	0	2052
63	0	0	2055
64	0	0	2057
65	0	0	2072
66	0	0	2076
67	0	0	2087
68	0	0	2083
69	0	0	2068
70	0	0	2061
71	0	0	2053
72	0	0	2069
73	0	0	2056
74	0	0	2069
75	0	0	2038
76	0	0	2064
77	0	0	2091
78	0	0	2097
79	0	0	2071
80	0	0	2052
81	0	0	2057
82	0	0	2069
83	0	0	2066
84	0	0	2053
85	0	0	2051
86	0	0	2083
87	0	0	2056
88	0	0	2062
89	0	0	2073
90	0	0	2065
91	0	0	2072
92	0	0	2084
93	0	0	2093
94	0	0	2069
95	0	0	2055
96	0	0	2066
97	0	0	2057
98	0	0	2060
99	0	0	2064
100	0	0	2067
101	0	0	2072
102	0	0	2065
103	0	0	2070
104	0	0	2064
105	0	0	2071
106	0	0	2072
107	0	0	2051
108	0	0	2053
109	0	0	2073
110	0	0	2081
111	0	0	2069
112	0	0	2060
113	0	0	2058
114	0	0	2063
115	0	0	2065
116	0	0	2055
117	0	0	2073
118	0	0	2066
119	0	0	2066
120	0	0	2070
121	0	0	2060
122	0	0	2070
123	0	0	2060
124	0	0	2057
125	0	0	2060
126	0	0	2057
127	0	0	2066
0	0	0	2072
1	0	0	2063
2	0	0	2053
3	0	0	2065
4	0	0	2083
5	0	0	2066
6	0	0	2069
7	0	0	2067
8	0	0	2070
9	0	0	2066
10	0	0	2059
11	0	0	2067
12	0	0	2068
13	0	0	2065
14	0	0	2060
15	0	0	2072
16	0	0	2072
17	0	0	2063
18	0	0	2064
19	0	0	2059
20	0	0	2060
21	0	0	2064
22	0	0	2053
23	0	0	2065
24	0	0	2063
25	0	0	2067
26	0	0	2077
27	0	0	2083
28	0	0	2063
29	0	0	2060
30	0	0	2058
31	0	0	2062
32	0	0	2071
33	0	0	2079
34	0	0	2067
35	0	0	2062
36	0	0	2055
37	0	0	2050
38	0	0	2062
39	0	0	2075
40	0	0	2061
41	0	0	2064
42	0	0	2059
43	0	0	2081
44	0	0	2068
45	0	0	2058
46	0	0	2057
47	0	0	2062
48	0	0	2077
49	0	0	2072
50	0	0	2065
51	0	0	2059
52	0	0	2066
53	0	0	2060
54	0	0	2067
55	0	0	2068
56	0	0	2066
57	0	0	2066
58	0	0	2071
59	0	0	2071
60	0	0	2066
61	0	0	2055
62	0	0	2056
63	0	0	2056
64	0	0	2066
65	0	0	2079
66	0	0	2073
67	0	0	2056
68	0	0	2061
69	0	0	2067
70	0	0	2085
71	0	0	2067
72	0	0	2058
73	0	0	2074
74	0	0	2069
75	0	0	2060
76	0	0	2065
77	0	0	2066
78	0	0	2056
79	0	0	2056
80	0	0	2084
81	0	0	2072
82	0	0	2061
83	0	0	2056
84	0	0	2067
85	0	0	2079
86	0	0	2072
87	0	0	2061
88	0	0	2059
89	0	0	2061
90	0	0	2057
91	0	0	2050
92	0	0	2095
93	0	0	2067
94	0	0	2067
95	0	0	2059
96	0	0	2061
97	0	0	2068
98	0	0	2071
99	0	0	2079
100	0	0	2050
101	0	0	2057
102	0	0	2071
103	0	0	2068
104	0	0	2069
105	0	0	2065
106	0	0	2072
107	0	0	2062
108	0	0	2067
109	0	0	2069
110	0	0	2062
111	0	0	2066
112	0	0	2073
113	0	0	2063
114	0	0	2060
115	0	0	2071
116	0	0	2070
117	0	0	2070
118	0	0	2066
119	0	0	2062
120	0	0	2066
121	0	0	2066
122	0	0	2065
123	0	0	2067
124	0	0	2073
125	0	0	2063
126	0	0	2063
127	0	0	2064
0	0	0	2063
1	0	0	2064
2	0	0	2069
3	0	0	2071
4	0	0	2069
5	0	0	2063
6	0	0	2061
7	0	0	2066
8	0	0	2065
9	0	0	2065
10	0	0	2062
11	0	0	2067
12	0	0	2065
13	0	0	2063
14	0	0	2073
15	0	0	2075
16	0	0	2069
17	0	0	2065
18	0	0	2069
19	0	0	2067
20	0	0	2063
21	0	0	2065
22	0	0	2060
23	0	0	2059
24	0	0	2064
25	0	0	2061
26	0	0	2061
27	0	0	2065
28	0	0	2063
29	0	0	2066
30	0	0	2070
31	0	0	2080
32	0	0	2072
33	0	0	2063
34	0	0	2059
35	0	0	2082
36	0	0	2073
37	0	0	2057
38	0	0	2071
39	0	0	2057
40	0	0	2054
41	0	0	2054
42	0	0	2064
43	0	0	2065
44	0	0	2059
45	0	0	2062
46	0	0	2068
47	0	0	2067
48	0	0	2068
49	0	0	2069
50	0	0	2065
51	0	0	2079
52	0	0	2077
53	0	0	2070
54	0	0	2055
55	0	0	2057
56	0	0	2069
57	0	0	2049
58	0	0	2071
59	0	0	2089
60	0	0	2093
61	0	0	2076
62	0	0	2085
63	0	0	2070
64	0	0	2064
65	0	0	2054
66	0	0	2040
67	0	0	2068
68	0	0	2039
69	0	0	2064
70	0	0	2059
71	0	0	2076
72	0	0	2076
73	0	0	2065
74	0	0	2058
75	0	0	2056
76	0	0	2070
77	0	0	2074
78	0	0	2063
79	0	0	2048
80	0	0	2056
81	0	0	2071
82	0	0	2067
83	0	0	2085
84	0	0	2100
85	0	0	2085
86	0	0	2067
87	0	0	2055
88	0	0	2056
89	0	0	2066
90	0	0	2081
91	0	0	2057
92	0	0	2056
93	0	0	2066
94	0	0	2075
95	0	0	2082
96	0	0	2066
97	0	0	2076
98	0	0	2074
99	0	0	2061
100	0	0	2054
101	0	0	2052
102	0	0	2057
103	0	0	2058
104	0	0	2058
105	0	0	2061
106	0	0	2060
107	0	0	2056
108	0	0	2065
109	0	0	2071
110	0	0	2099
111	0	0	2082
112	0	0	2060
113	0	0	2060
114	0	0	2066
115	0	0	2067
116	0	0	2070
117	0	0	2066
118	0	0	2053
119	0	0	2063
120	0	0	2066
121	0	0	2063
122	0	0	2060
123	0	0	2063
124	0	0	2065
125	0	0	2065
126	0	0	2075
127	0	0	2056
0	0	0	2070
1	0	0	2066
2	0	0	2083
3	0	0	2082
4	0	0	2070
5	0	0	2061
6	0	0	2053
7	0	0	2063
8	0	0	2060
9	0	0	2070
10	0	0	2075
11	0	0	2066
12	0	0	2061
13	0	0	2057
14	0	0	2063
15	0	0	2068
16	0	0	2072
17	0	0	2064
18	0	0	2080
19	0	0	2074
20	0	0	2063
21	0	0	2064
22	0	0	2061
23	0	0	2058
24	0	0	2045
25	0	0	2068
26	0	0	2073
27	0	0	2067
28	0	0	2064
29	0	0	2072
30	0	0	2060
31	0	0	2058
32	0	0	2064
33	0	0	2074
34	0	0	2067
35	0	0	2062
36	0	0	2062
37	0	0	2060
38	0	0	2067
39	0	0	2071
40	0	0	2069
41	0	0	2062
42	0	0	2066
43	0	0	2063
44	0	0	2062
45	0	0	2061
46	0	0	2071
47	0	0	2072
48	0	0	2076
49	0	0	2064
50	0	0	2057
51	0	0	2072
52	0	0	2057
53	0	0	2064
54	0	0	2067
55	0	0	2067
56	0	0	2063
57	0	0	2063
58	0	0	2065
59	0	0	2063
60	0	0	2064
61	0	0	2061
62	0	0	2055
63	0	0	2074
64	0	0	2073
65	0	0	2067
66	0	0	2065
67	0	0	2067
68	0	0	2071
69	0	0	2068
70	0	0	2060
71	0	0	2059
72	0	0	2072
73	0	0	2064
74	0	0	2059
75	0	0	2057
76	0	0	2062
77	0	0	2075
78	0	0	2080
79	0	0	2068
80	0	0	2063
81	0	0	2064
82	0	0	2060
83	0	0	2065
84	0	0	2073
85	0	0	2069
86	0	0	2065
87	0	0	2062
88	0	0	2062
89	0	0	2064
90	0	0	2065
91	0	0	2061
92	0	0	2068
93	0	0	2071
94	0	0	2063
95	0	0	2055
96	0	0	2060
97	0	0	2063
98	0	0	2067
99	0	0	2069
100	0	0	2068
101	0	0	2062
102	0	0	2068
103	0	0	2072
104	0	0	2067
105	0	0	2073
106	0	0	2067
107	0	0	2058
108	0	0	2060
109	0	0	2057
110	0	0	2072
111	0	0	2068
112	0	0	2073
113	0	0	2063
114	0	0	2052
115	0	0	2051
116	0	0	2080
117	0	0	2081
118	0	0	2078
119	0	0	2041
120	0	0	2062
121	0	0	2068
122	0	0	2071
123	0	0	2063
124	0	0	2055
125	0	0	2070
126	0	0	2060
127	0	0	2046
0	0	0	2068
1	0	0	2081
2	0	0	2079
3	0	0	2072
4	0	0	2061
5	0	0	2057
6	0	0	2062
7	0	0	2075
8	0	0	2085
9	0	0	2067
10	0	0	2053
11	0	0	2053
12	0	0	2035
13	0	0	2062
14	0	0	2065
15	0	0	2069
16	0	0	2074
17	0	0	2070
18	0	0	2070
19	0	0	2093
20	0	0	2091
21	0	0	2052
22	0	0	2048
23	0	0	2065
24	0	0	2057
25	0	0	2060
26	0	0	2057
27	0	0	2058
28	0	0	2057
29	0	0	2063
30	0	0	2063
31	0	0	2076
32	0	0	2094
33	0	0	2101
34	0	0	2095
35	0	0	2077
36	0	0	2056
37	0	0	2053
38	0	0	2060
39	0	0	2058
40	0	0	2062
41	0	0	2018
42	0	0	2017
43	0	0	2028
44	0	0	2049
45	0	0	2078
46	0	0	2115
47	0	0	2134
48	0	0	2119
49	0	0	2149
50	0	0	2126
51	0	0	2036
52	0	0	1990
53	0	0	2000
54	0	0	2008
55	0	0	2036
56	0	0	2053
57	0	0	2060
58	0	0	2065
59	0	0	2094
60	0	0	2069
61	0	0	2098
62	0	0	2098
63	0	0	2094
64	0	0	2090
65	0	0	2060
66	0	0	2048
67	0	0	2019
68	0	0	2017
69	0	0	2027
70	0	0	2068
71	0	0	2065
72	0	0	2067
73	0	0	2040
74	0	0	2059
75	0	0	2102
76	0	0	2078
77	0	0	2080
78	0	0	2093
79	0	0	2084
80	0	0	2044
81	0	0	2035
82	0	0	2060
83	0	0	2096
84	0	0	2096
85	0	0	2097
86	0	0	2092
87	0	0	2099
88	0	0	2083
89	0	0	2048
90	0	0	2067
91	0	0	2043
92	0	0	1993
93	0	0	1953
94	0	0	1998
95	0	0	2042
96	0	0	2064
97	0	0	2113
98	0	0	2124
99	0	0	2127
100	0	0	2072
101	0	0	2027
102	0	0	2035
103	0	0	2077
104	0	0	2152
105	0	0	2200
106	0	0	2158
107	0	0	2082
108	0	0	2043
109	0	0	2051
110	0	0	2049
111	0	0	2007
112	0	0	1983
113	0	0	1944
114	0	0	1995
115	0	0	2054
116	0	0	2039
117	0	0	2066
118	0	0	2076
119	0	0	2087
120	0	0	2100
121	0	0	2123
122	0	0	2104
123	0	0	2039
124	0	0	2016
125	0	0	2079
126	0	0	2067
127	0	0	2067
0	0	0	2059
1	0	0	2110
2	0	0	2131
3	0	0	2133
4	0	0	2134
5	0	0	2060
6	0	0	2001
7	0	0	1982
8	0	0	1984
9	0	0	2026
10	0	0	2039
11	0	0	2076
12	0	0	2124
13	0	0	2081
14	0	0	2033
15	0	0	1986
16	0	0	1949
17	0	0	2023
18	0	0	2083
19	0	0	2131
20	0	0	2141
21	0	0	2206
22	0	0	2200
23	0	0	2188
24	0	0	2144
25	0	0	1988
26	0	0	1883
27	0	0	1887
28	0	0	1978
29	0	0	2038
30	0	0	2091
31	0	0	2133
32	0	0	2194
33	0	0	2125
34	0	0	2059
35	0	0	2029
36	0	0	2007
37	0	0	1977
38	0	0	2011
39	0	0	2097
40	0	0	2083
41	0	0	2091
42	0	0	2106
43	0	0	2073
44	0	0	2020
45	0	0	2009
46	0	0	2073
47	0	0	2119
48	0	0	2072
49	0	0	2054
50	0	0	2048
51	0	0	2073
52	0	0	2105
53	0	0	2023
54	0	0	2042
55	0	0	2063
56	0	0	2067
57	0	0	2100
58	0	0	2091
59	0	0	2087
60	0	0	2121
61	0	0	2151
62	0	0	2086
63	0	0	2104
64	0	0	2065
65	0	0	2037
66	0	0	2030
67	0	0	2052
68	0	0	2027
69	0	0	2019
70	0	0	2048
71	0	0	2061
72	0	0	2071
73	0	0	2066
74	0	0	2061
75	0	0	2041
76	0	0	2058
77	0	0	2046
78	0	0	2073
79	0	0	2087
80	0	0	2085
81	0	0	2074
82	0	0	2090
83	0	0	2038
84	0	0	2060
85	0	0	2051
86	0	0	2044
87	0	0	2060
88	0	0	2050
89	0	0	2095
90	0	0	2089
91	0	0	2063
92	0	0	2060
93	0	0	2078
94	0	0	2082
95	0	0	2099
96	0	0	2068
97	0	0	2113
98	0	0	2117
99	0	0	2064
100	0	0	2049
101	0	0	2090
102	0	0	2062
103	0	0	2019
104	0	0	2028
105	0	0	2058
106	0	0	2080
107	0	0	2088
108	0	0	2069
109	0	0	2078
110	0	0	2060
111	0	0	2062
112	0	0	2041
113	0	0	2058
114	0	0	2082
115	0	0	2093
116	0	0	2110
117	0	0	2123
118	0	0	2071
119	0	0	2021
120	0	0	2016
121	0	0	2041
122	0	0	2064
123	0	0	2080
124	0	0	2095
125	0	0	2072
126	0	0	2050
127	0	0	2065
0	0	0	2098
1	0	0	2071
2	0	0	2052
3	0	0	2065
4	0	0	2039
5	0	0	2077
6	0	0	2053
7	0	0	2035
8	0	0	2037
9	0	0	2071
10	0	0	2074
11	0	0	2067
12	0	0	2074
13	0	0	2054
14	0	0	2057
15	0	0	2030
16	0	0	2029
17	0	0	2031
18	0	0	2026
19	0	0	2044
20	0	0	2086
21	0	0	2067
22	0	0	2045
23	0	0	2032
24	0	0	2028
25	0	0	2039
26	0	0	2051
27	0	0	2046
28	0	0	2061
29	0	0	2089
30	0	0	2103
31	0	0	2074
32	0	0	2074
33	0	0	2074
34	0	0	2089
35	0	0	2054
36	0	0	2053
37	0	0	2054
38	0	0	2084
39	0	0	2065
40	0	0	2049
41	0	0	2067
42	0	0	2073
43	0	0	2065
44	0	0	2059
45	0	0	2055
46	0	0	2081
47	0	0	2091
48	0	0	2081
49	0	0	2060
50	0	0	2067
51	0	0	2052
52	0	0	2033
53	0	0	2062
54	0	0	2092
55	0	0	2089
56	0	0	2075
57	0	0	2088
58	0	0	2085
59	0	0	2076
60	0	0	2062
61	0	0	2099
62	0	0	2070
63	0	0	2063
64	0	0	2061
65	0	0	2049
66	0	0	2053
67	0	0	2063
68	0	0	2079
69	0	0	2054
70	0	0	2073
71	0	0	2079
72	0	0	2067
73	0	0	2076
74	0	0	2074
75	0	0	2077
76	0	0	2070
77	0	0	2067
78	0	0	2066
79	0	0	2049
80	0	0	2056
81	0	0	2059
82	0	0	2056
83	0	0	2094
84	0	0	2096
85	0	0	2083
86	0	0	2072
87	0	0	2069
88	0	0	2070
89	0	0	2064
90	0	0	2065
91	0	0	2078
92	0	0	2044
93	0	0	2058
94	0	0	2062
95	0	0	2064
96	0	0	2068
97	0	0	2056
98	0	0	2057
99	0	0	2064
100	0	0	2062
101	0	0	2044
102	0	0	2054
103	0	0	2063
104	0	0	2086
105	0	0	2132
106	0	0	2094
107	0	0	2091
108	0	0	2068
109	0	0	2055
110	0	0	2054
111	0	0	2074
112	0	0	2033
113	0	0	2043
114	0	0	2064
115	0	0	2074
116	0	0	2056
117	0	0	2070
118	0	0	2071
119	0	0	2077
120	0	0	2077
121	0	0	2074
122	0	0	2068
123	0	0	2058
124	0	0	2044
125	0	0	2045
126	0	0	2046
127	0	0	2060
0	0	0	2074
1	0	0	2097
2	0	0	2092
3	0	0	2089
4	0	0	2053
5	0	0	2034
6	0	0	2044
7	0	0	2070
8	0	0	2090
9	0	0	2079
10	0	0	2081
11	0	0	2061
12	0	0	2051
13	0	0	2052
14	0	0	2065
15	0	0	2078
16	0	0	2084
17	0	0	2090
18	0	0	2077
19	0	0	2062
20	0	0	2046
21	0	0	2040
22	0	0	2048
23	0	0	2070
24	0	0	2071
25	0	0	2069
26	0	0	2068
27	0	0	2064
28	0	0	2058
29	0	0	2063
30	0	0	2066
31	0	0	2068
32	0	0	2070
33	0	0	2067
34	0	0	2063
35	0	0	2064
36	0	0	2069
37	0	0	2070
38	0	0	2081
39	0	0	2079
40	0	0	2067
41	0	0	2046
42	0	0	2068
43	0	0	2071
44	0	0	2073
45	0	0	2057
46	0	0	2075
47	0	0	2055
48	0	0	2053
49	0	0	2065
50	0	0	2067
51	0	0	2068
52	0	0	2066
53	0	0	2074
54	0	0	2078
55	0	0	2076
56	0	0	2061
57	0	0	2042
58	0	0	2059
59	0	0	2054
60	0	0	2068
61	0	0	2065
62	0	0	2070
63	0	0	2073
64	0	0	2080
65	0	0	2077
66	0	0	2075
67	0	0	2072
68	0	0	2064
69	0	0	2061
70	0	0	2063
71	0	0	2073
72	0	0	2069
73	0	0	2077
74	0	0	2060
75	0	0	2053
76	0	0	2077
77	0	0	2064
78	0	0	2056
79	0	0	2052
80	0	0	2051
81	0	0	2060
82	0	0	2068
83	0	0	2073
84	0	0	2083
85	0	0	2077
86	0	0	2061
87	0	0	2044
88	0	0	2063
89	0	0	2074
90	0	0	2080
91	0	0	2082
92	0	0	2071
93	0	0	2071
94	0	0	2069
95	0	0	2057
96	0	0	2064
97	0	0	2058
98	0	0	2070
99	0	0	2066
100	0	0	2058
101	0	0	2048
102	0	0	2038
103	0	0	2069
104	0	0	2103
105	0	0	2053
106	0	0	2031
107	0	0	2077
108	0	0	2092
109	0	0	2081
110	0	0	2067
111	0	0	2061
112	0	0	2074
113	0	0	2057
114	0	0	2060
115	0	0	2064
116	0	0	2061
117	0	0	2063
118	0	0	2066
119	0	0	2067
120	0	0	2068
121	0	0	2066
122	0	0	2073
123	0	0	2063
124	0	0	2072
125	0	0	2067
126	0	0	2062
127	0	0	2055
0	0	0	2063
1	0	0	2076
2	0	0	2070
3	0	0	2063
4	0	0	2084
5	0	0	2070
6	0	0	2082
7	0	0	2055
8	0	0	2052
9	0	0	2053
10	0	0	2053
11	0	0	2062
12	0	0	2065
13	0	0	2068
14	0	0	2080
15	0	0	2092
16	0	0	2065
17	0	0	2060
18	0	0	2056
19	0	0	2049
20	0	0	2065
21	0	0	2074
22	0	0	2073
23	0	0	2062
24	0	0	2067
25	0	0	2075
26	0	0	2058
27	0	0	2061
28	0	0	2051
29	0	0	2059
30	0	0	2072
31	0	0	2060
32	0	0	2061
33	0	0	2072
34	0	0	2077
35	0	0	2061
36	0	0	2065
37	0	0	2053
38	0	0	2097
39	0	0	2064
40	0	0	2063
41	0	0	2063
42	0	0	2063
43	0	0	2084
44	0	0	2076
45	0	0	2055
46	0	0	2051
47	0	0	2055
48	0	0	2067
49	0	0	2059
50	0	0	2061
51	0	0	2092
52	0	0	2078
53	0	0	2051
54	0	0	2040
55	0	0	2064
56	0	0	2073
57	0	0	2063
58	0	0	2063
59	0	0	2064
60	0	0	2068
61	0	0	2064
62	0	0	2063
63	0	0	2062
64	0	0	2062
65	0	0	2060
66	0	0	2048
67	0	0	2061
68	0	0	2075
69	0	0	2070
70	0	0	2069
71	0	0	2063
72	0	0	2068
73	0	0	2071
74	0	0	2064
75	0	0	2064
76	0	0	2072
77	0	0	2062
78	0	0	2080
79	0	0	2063
80	0	0	2078
81	0	0	2062
82	0	0	2064
83	0	0	2063
84	0	0	2061
85	0	0	2072
86	0	0	2063
87	0	0	2066
88	0	0	2067
89	0	0	2059
90	0	0	2064
91	0	0	2065
92	0	0	2068
93	0	0	2068
94	0	0	2067
95	0	0	2065
96	0	0	2063
97	0	0	2062
98	0	0	2066
99	0	0	2067
100	0	0	2066
101	0	0	2071
102	0	0	2073
103	0	0	2064
104	0	0	2050
105	0	0	2041
106	0	0	2062
107	0	0	2076
108	0	0	2070
109	0	0	2072
110	0	0	2079
111	0	0	2082
112	0	0	2082
113	0	0	2068
114	0	0	2052
115	0	0	2047
116	0	0	2060
117	0	0	2058
118	0	0	2066
119	0	0	2054
120	0	0	2060
121	0	0	2067
122	0	0	2063
123	0	0	2067
124	0	0	2069
125	0	0	2082
126	0	0	2086
127	0	0	2087
0	0	0	2083
1	0	0	2065
2	0	0	2045
3	0	0	2056
4	0	0	2059
5	0	0	2063
6	0	0	2067
7	0	0	2061
8	0	0	2071
9	0	0	2061
10	0	0	2051
11	0	0	2064
12	0	0	2074
13	0	0	2061
14	0	0	2058
15	0	0	2069
16	0	0	2065
17	0	0	2069
18	0	0	2071
19	0	0	2070
20	0	0	2064
21	0	0	2066
22	0	0	2061
23	0	0	2071
24	0	0	2066
25	0	0	2079
26	0	0	2069
27	0	0	2062
28	0	0	2063
29	0	0	2061
30	0	0	2068
31	0	0	2076
32	0	0	2061
33	0	0	2063
34	0	0	2074
35	0	0	2060
36	0	0	2060
37	0	0	2065
38	0	0	2062
39	0	0	2062
40	0	0	2078
41	0	0	2066
42	0	0	2064
43	0	0	2064
44	0	0	2070
45	0	0	2062
46	0	0	2072
47	0	0	2071
48	0	0	2068
49	0	0	2063
50	0	0	2067
51	0	0	2071
52	0	0	2066
53	0	0	2068
54	0	0	2065
55	0	0	2059
56	0	0	2075
57	0	0	2059
58	0	0	2067
59	0	0	2066
60	0	0	2060
61	0	0	2065
62	0	0	2065
63	0	0	2064
64	0	0	2068
65	0	0	2062
66	0	0	2059
67	0	0	2076
68	0	0	2077
69	0	0	2066
70	0	0	2067
71	0	0	2074
72	0	0	2071
73	0	0	2059
74	0	0	2060
75	0	0	2068
76	0	0	2070
77	0	0	2070
78	0	0	2063
79	0	0	2065
80	0	0	2063
81	0	0	2059
82	0	0	2058
83	0	0	2055
84	0	0	2062
85	0	0	2061
86	0	0	2076
87	0	0	2075
88	0	0	2070
89	0	0	2079
90	0	0	2065
91	0	0	2073
92	0	0	2063
93	0	0	2063
94	0	0	2072
95	0	0	2060
96	0	0	2059
97	0	0	2055
98	0	0	2068
99	0	0	2068
100	0	0	2072
101	0	0	2069
102	0	0	2074
103	0	0	2063
104	0	0	2051
105	0	0	2045
106	0	0	2059
107	0	0	2078
108	0	0	2069
109	0	0	2062
110	0	0	2065
111	0	0	2059
112	0	0	2066
113	0	0	2061
114	0	0	2076
115	0	0	2054
116	0	0	2080
117	0	0	2073
118	0	0	2069
119	0	0	2042
120	0	0	2060
121	0	0	2072
122	0	0	2071
123	0	0	2078
124	0	0	2066
125	0	0	2061
126	0	0	2062
127	0	0	2060
0	0	0	2064
1	0	0	2067
2	0	0	2067
3	0	0	2078
4	0	0	2061
5	0	0	2067
6	0	0	2057
7	0	0	2063
8	0	0	2060
9	0	0	2062
10	0	0	2069
11	0	0	2069
12	0	0	2067
13	0	0	2055
14	0	0	2057
15	0	0	2063
16	0	0	2064
17	0	0	2077
18	0	0	2059
19	0	0	2056
20	0	0	2061
21	0	0	2078
22	0	0	2066
23	0	0	2073
24	0	0	2076
25	0	0	2066
26	0	0	2059
27	0	0	2062
28	0	0	2063
29	0	0	2065
30	0	0	2069
31	0	0	2067
32	0	0	2064
33	0	0	2057
34	0	0	2059
35	0	0	2055
36	0	0	2074
37	0	0	2071
38	0	0	2063
39	0	0	2066
40	0	0	2064
41	0	0	2059
42	0	0	2061
43	0	0	2065
44	0	0	2064
45	0	0	2061
46	0	0	2073
47	0	0	2076
48	0	0	2062
49	0	0	2065
50	0	0	2066
51	0	0	2064
52	0	0	2066
53	0	0	2071
54	0	0	2074
55	0	0	2062
56	0	0	2059
57	0	0	2063
58	0	0	2070
59	0	0	2069
60	0	0	2071
61	0	0	2061
62	0	0	2056
63	0	0	2068
64	0	0	2074
65	0	0	2064
66	0	0	2074
67	0	0	2056
68	0	0	2063
69	0	0	2068
70	0	0	2062
71	0	0	2078
72	0	0	2075
73	0	0	2067
74	0	0	2057
75	0	0	2060
76	0	0	2067
77	0	0	2062
78	0	0	2058
79	0	0	2065
80	0	0	2082
81	0	0	2064
82	0	0	2074
83	0	0	2061
84	0	0	2051
85	0	0	2062
86	0	0	2078
87	0	0	2073
88	0	0	2079
89	0	0	2064
90	0	0	2060
91	0	0	2056
92	0	0	2069
93	0	0	2069
94	0	0	2071
95	0	0	2063
96	0	0	2069
97	0	0	2062
98	0	0	2056
99	0	0	2064
100	0	0	2070
101	0	0	2068
102	0	0	2063
103	0	0	2062
104	0	0	2071
105	0	0	2067
106	0	0	2057
107	0	0	2065
108	0	0	2081
109	0	0	2070
110	0	0	2055
111	0	0	2061
112	0	0	2073
113	0	0	2062
114	0	0	2067
115	0	0	2064
116	0	0	2068
117	0	0	2069
118	0	0	2066
119	0	0	2073
120	0	0	2060
121	0	0	2063
122	0	0	2051
123	0	0	2060
124	0	0	2070
125	0	0	2066
126	0	0	2055
127	0	0	2067
0	0	0	2072
1	0	0	2077
2	0	0	2063
3	0	0	2062
4	0	0	2069
5	0	0	2058
6	0	0	2061
7	0	0	2072
8	0	0	2072
9	0	0	2068
10	0	0	2063
11	0	0	2067
12	0	0	2059
13	0	0	2060
14	0	0	2077
15	0	0	2064
16	0	0	2048
17	0	0	2065
18	0	0	2098
19	0	0	2061
20	0	0	2060
21	0	0	2068
22	0	0	2063
23	0	0	2070
24	0	0	2060
25	0	0	2060
26	0	0	2073
27	0	0	2062
28	0	0	2060
29	0	0	2067
30	0	0	2066
31	0	0	2071
32	0	0	2063
33	0	0	2059
34	0	0	2062
35	0	0	2060
36	0	0	2069
37	0	0	2067
38	0	0	2066
39	0	0	2071
40	0	0	2062
41	0	0	2082
42	0	0	2066
43	0	0	2062
44	0	0	2062
45	0	0	2059
46	0	0	2063
47	0	0	2065
48	0	0	2063
49	0	0	2065
50	0	0	2071
51	0	0	2061
52	0	0	2052
53	0	0	2063
54	0	0	2064
55	0	0	2050
56	0	0	2065
57	0	0	2063
58	0	0	2069
59	0	0	2066
60	0	0	2073
61	0	0	2092
62	0	0	2110
63	0	0	2102
64	0	0	2077
65	0	0	2058
66	0	0	2050
67	0	0	2055
68	0	0	2054
69	0	0	2038
70	0	0	2042
71	0	0	2056
72	0	0	2076
73	0	0	2068
74	0	0	2064
75	0	0	2082
76	0	0	2063
77	0	0	2108
78	0	0	2112
79	0	0	2085
80	0	0	2068
81	0	0	2044
82	0	0	2029
83	0	0	2039
84	0	0	2039
85	0	0	2039
86	0	0	2068
87	0	0	2077
88	0	0	2085
89	0	0	2095
90	0	0	2084
91	0	0	2071
92	0	0	2055
93	0	0	2062
94	0	0	2087
95	0	0	2082
96	0	0	2053
97	0	0	2051
98	0	0	2054
99	0	0	2058
100	0	0	2052
101	0	0	2060
102	0	0	2071
103	0	0	2064
104	0	0	2092
105	0	0	2069
106	0	0	2049
107	0	0	2071
108	0	0	2085
109	0	0	2086
110	0	0	2055
111	0	0	2051
112	0	0	2066
113	0	0	2062
114	0	0	2053
115	0	0	2049
116	0	0	2059
117	0	0	2061
118	0	0	2055
119	0	0	2075
120	0	0	2068
121	0	0	2060
122	0	0	2064
123	0	0	2071
124	0	0	2073
125	0	0	2073
126	0	0	2069
127	0	0	2061
0	0	0	2062
1	0	0	2069
2	0	0	2064
3	0	0	2062
4	0	0	2055
5	0	0	2058
6	0	0	2081
7	0	0	2064
8	0	0	2057
9	0	0	2068
10	0	0	2068
11	0	0	2083
12	0	0	2059
13	0	0	2057
14	0	0	2064
15	0	0	2071
16	0	0	2071
17	0	0	2059
18	0	0	2058
19	0	0	2053
20	0	0	2066
21	0	0	2065
22	0	0	2057
23	0	0	2063
24	0	0	2072
25	0	0	2074
26	0	0	2063
27	0	0	2060
28	0	0	2046
29	0	0	2063
30	0	0	2064
31	0	0	2100
32	0	0	2059
33	0	0	2057
34	0	0	2059
35	0	0	2064
36	0	0	2066
37	0	0	2067
38	0	0	2063
39	0	0	2062
40	0	0	2059
41	0	0	2050
42	0	0	2067
43	0	0	2092
44	0	0	2113
45	0	0	2093
46	0	0	2080
47	0	0	2061
48	0	0	2053
49	0	0	2045
50	0	0	2050
51	0	0	2042
52	0	0	2050
53	0	0	2061
54	0	0	2068
55	0	0	2056
56	0	0	2059
57	0	0	2079
58	0	0	2091
59	0	0	2065
60	0	0	2078
61	0	0	2092
62	0	0	2066
63	0	0	2084
64	0	0	2056
65	0	0	2034
66	0	0	2020
67	0	0	2035
68	0	0	2054
69	0	0	2066
70	0	0	2068
71	0	0	2085
72	0	0	2093
73	0	0	2101
74	0	0	2097
75	0	0	2091
76	0	0	2086
77	0	0	2063
78	0	0	2069
79	0	0	2048
80	0	0	2056
81	0	0	2068
82	0	0	2066
83	0	0	2039
84	0	0	2061
85	0	0	2088
86	0	0	2077
87	0	0	2051
88	0	0	2051
89	0	0	2067
90	0	0	2058
91	0	0	2069
92	0	0	2054
93	0	0	2050
94	0	0	2059
95	0	0	2074
96	0	0	2059
97	0	0	2042
98	0	0	2038
99	0	0	2043
100	0	0	2060
101	0	0	2058
102	0	0	2084
103	0	0	2105
104	0	0	2122
105	0	0	2116
106	0	0	2086
107	0	0	2067
108	0	0	2043
109	0	0	2048
110	0	0	2062
111	0	0	2071
112	0	0	2052
113	0	0	2071
114	0	0	2073
115	0	0	2059
116	0	0	2036
117	0	0	2045
118	0	0	2053
119	0	0	2041
120	0	0	2045
121	0	0	2052
122	0	0	2063
123	0	0	2091
124	0	0	2114
125	0	0	2114
126	0	0	2086
127	0	0	2097
0	0	0	2057
1	0	0	2045
2	0	0	2033
3	0	0	2051
4	0	0	2033
5	0	0	2026
6	0	0	2052
7	0	0	2032
8	0	0	2060
9	0	0	2070
10	0	0	2084
11	0	0	2094
12	0	0	2084
13	0	0	2067
14	0	0	2052
15	0	0	2028
16	0	0	2058
17	0	0	2118
18	0	0	2155
19	0	0	2087
20	0	0	2075
21	0	0	2090
22	0	0	2078
23	0	0	2037
24	0	0	1992
25	0	0	1984
26	0	0	2028
27	0	0	2071
28	0	0	2075
29	0	0	2114
30	0	0	2150
31	0	0	2093
32	0	0	2045
33	0	0	2033
34	0	0	2051
35	0	0	2035
36	0	0	2042
37	0	0	2036
38	0	0	2063
39	0	0	2134
40	0	0	2097
41	0	0	2050
42	0	0	2052
43	0	0	2081
44	0	0	2040
45	0	0	2020
46	0	0	2040
47	0	0	2024
48	0	0	2037
49	0	0	2064
50	0	0	2103
51	0	0	2106
52	0	0	2082
53	0	0	2076
54	0	0	2064
55	0	0	2041
56	0	0	2069
57	0	0	2092
58	0	0	2102
59	0	0	2067
60	0	0	2056
61	0	0	2028
62	0	0	2067
63	0	0	2058
64	0	0	2064
65	0	0	2082
66	0	0	2126
67	0	0	2070
68	0	0	2040
69	0	0	2025
70	0	0	1989
71	0	0	2071
72	0	0	2094
73	0	0	2095
74	0	0	2097
75	0	0	2048
76	0	0	2037
77	0	0	2035
78	0	0	2075
79	0	0	2067
80	0	0	2036
81	0	0	2024
82	0	0	2027
83	0	0	2043
84	0	0	2021
85	0	0	2056
86	0	0	2131
87	0	0	2125
88	0	0	2123
89	0	0	2116
90	0	0	2130
91	0	0	2099
92	0	0	2041
93	0	0	2048
94	0	0	2058
95	0	0	2039
96	0	0	2022
97	0	0	2018
98	0	0	2030
99	0	0	2046
100	0	0	2046
101	0	0	2066
102	0	0	2051
103	0	0	2054
104	0	0	2092
105	0	0	2073
106	0	0	2069
107	0	0	2063
108	0	0	2075
109	0	0	2067
110	0	0	2050
111	0	0	2037
112	0	0	2053
113	0	0	2080
114	0	0	2068
115	0	0	2048
116	0	0	2056
117	0	0	2133
118	0	0	2142
119	0	0	2096
120	0	0	2048
121	0	0	2046
122	0	0	2077
123	0	0	2089
124	0	0	2087
125	0	0	2093
126	0	0	2076
127	0	0	2024
0	0	0	2023
1	0	0	2046
2	0	0	2053
3	0	0	2053
4	0	0	2072
5	0	0	2081
6	0	0	2063
7	0	0	2055
8	0	0	2059
9	0	0	2057
10	0	0	2063
11	0	0	2071
12	0	0	2092
13	0	0	2091
14	0	0	2105
15	0	0	2051
16	0	0	2062
17	0	0	2046
18	0	0	2076
19	0	0	2094
20	0	0	2049
21	0	0	2088
22	0	0	2108
23	0	0	2084
24	0	0	2070
25	0	0	2056
26	0	0	2054
27	0	0	2052
28	0	0	2056
29	0	0	2065
30	0	0	2080
31	0	0	2082
32	0	0	2069
33	0	0	2078
34	0	0	2068
35	0	0	2052
36	0	0	2038
37	0	0	2055
38	0	0	2069
39	0	0	2054
40	0	0	2073
41	0	0	2061
42	0	0	2070
43	0	0	2076
44	0	0	2061
45	0	0	2075
46	0	0	2061
47	0	0	2079
48	0	0	2070
49	0	0	2058
50	0	0	2075
51	0	0	2067
52	0	0	2056
53	0	0	2049
54	0	0	2068
55	0	0	2077
56	0	0	2051
57	0	0	2050
58	0	0	2052
59	0	0	2075
60	0	0	2074
61	0	0	2060
62	0	0	2059
63	0	0	2098
64	0	0	2077
65	0	0	2065
66	0	0	2063
67	0	0	2061
68	0	0	2044
69	0	0	2053
70	0	0	2034
71	0	0	2041
72	0	0	2056
73	0	0	2057
74	0	0	2056
75	0	0	2058
76	0	0	2080
77	0	0	2098
78	0	0	2073
79	0	0	2064
80	0	0	2071
81	0	0	2082
82	0	0	2070
83	0	0	2065
84	0	0	2053
85	0	0	2043
86	0	0	2054
87	0	0	2055
88	0	0	2096
89	0	0	2063
90	0	0	2073
91	0	0	2056
92	0	0	2057
93	0	0	2061
94	0	0	2068
95	0	0	2063
96	0	0	2044
97	0	0	2062
98	0	0	2091
99	0	0	2083
100	0	0	2068
101	0	0	2056
102	0	0	2060
103	0	0	2060
104	0	0	2068
105	0	0	2061
106	0	0	2071
107	0	0	2065
108	0	0	2066
109	0	0	2070
110	0	0	2065
111	0	0	2071
112	0	0	2063
113	0	0	2060
114	0	0	2070
115	0	0	2063
116	0	0	2057
117	0	0	2062
118	0	0	2048
119	0	0	2077
120	0	0	2092
121	0	0	2088
122	0	0	2051
123	0	0	2045
124	0	0	2064
125	0	0	2074
126	0	0	2077
127	0	0	2073
0	0	0	2067
1	0	0	2060
2	0	0	2066
3	0	0	2066
4	0	0	2056
5	0	0	2046
6	0	0	2071
7	0	0	2098
8	0	0	2084
9	0	0	2064
10	0	0	2070
11	0	0	2060
12	0	0	2046
13	0	0	2060
14	0	0	2055
15	0	0	2052
16	0	0	2071
17	0	0	2057
18	0	0	2056
19	0	0	2080
20	0	0	2097
21	0	0	2074
22	0	0	2095
23	0	0	2109
24	0	0	2063
25	0	0	2047
26	0	0	2033
27	0	0	2036
28	0	0	2045
29	0	0	2083
30	0	0	2077
31	0	0	2090
32	0	0	2064
33	0	0	2069
34	0	0	2054
35	0	0	2066
36	0	0	2068
37	0	0	2076
38	0	0	2070
39	0	0	2051
40	0	0	2071
41	0	0	2072
42	0	0	2063
43	0	0	2063
44	0	0	2059
45	0	0	2073
46	0	0	2062
47	0	0	2057
48	0	0	2063
49	0	0	2054
50	0	0	2048
51	0	0	2097
52	0	0	2081
53	0	0	2060
54	0	0	2073
55	0	0	2077
56	0	0	2107
57	0	0	2078
58	0	0	2066
59	0	0	2042
60	0	0	2045
61	0	0	2050
62	0	0	2053
63	0	0	2059
64	0	0	2063
65	0	0	2058
66	0	0	2080
67	0	0	2074
68	0	0	2075
69	0	0	2077
70	0	0	2062
71	0	0	2048
72	0	0	2064
73	0	0	2070
74	0	0	2054
75	0	0	2057
76	0	0	2077
77	0	0	2058
78	0	0	2059
79	0	0	2063
80	0	0	2063
81	0	0	2066
82	0	0	2068
83	0	0	2067
84	0	0	2066
85	0	0	2069
86	0	0	2063
87	0	0	2069
88	0	0	2065
89	0	0	2061
90	0	0	2062
91	0	0	2067
92	0	0	2066
93	0	0	2059
94	0	0	2071
95	0	0	2069
96	0	0	2062
97	0	0	2064
98	0	0	2075
99	0	0	2073
100	0	0	2059
101	0	0	2074
102	0	0	2068
103	0	0	2054
104	0	0	2064
105	0	0	2063
106	0	0	2065
107	0	0	2062
108	0	0	2061
109	0	0	2060
110	0	0	2062
111	0	0	2072
112	0	0	2069
113	0	0	2063
114	0	0	2059
115	0	0	2067
116	0	0	2085
117	0	0	2068
118	0	0	2067
119	0	0	2063
120	0	0	2059
121	0	0	2066
122	0	0	2067
123	0	0	2064
124	0	0	2065
125	0	0	2066
126	0	0	2067
127	0	0	2060
0	0	0	2076
1	0	0	2069
2	0	0	2070
3	0	0	2063
4	0	0	2058
5	0	0	2063
6	0	0	2065
7	0	0	2064
8	0	0	2059
9	0	0	2087
10	0	0	2084
11	0	0	2071
12	0	0	2060
13	0	0	2062
14	0	0	2054
15	0	0	2063
16	0	0	2082
17	0	0	2077
18	0	0	2057
19	0	0	2059
20	0	0	2067
21	0	0	2074
22	0	0	2060
23	0	0	2066
24	0	0	2067
25	0	0	2052
26	0	0	2075
27	0	0	2064
28	0	0	2079
29	0	0	2072
30	0	0	2063
31	0	0	2076
32	0	0	2075
33	0	0	2058
34	0	0	2068
35	0	0	2064
36	0	0	2059
37	0	0	2059
38	0	0	2073
39	0	0	2081
40	0	0	2101
41	0	0	2099
42	0	0	2068
43	0	0	2065
44	0	0	2052
45	0	0	2045
46	0	0	2051
47	0	0	2048
48	0	0	2062
49	0	0	2058
50	0	0	2066
51	0	0	2061
52	0	0	2057
53	0	0	2062
54	0	0	2082
55	0	0	2091
56	0	0	2061
57	0	0	2058
58	0	0	2067
59	0	0	2061
60	0	0	2052
61	0	0	2065
62	0	0	2057
63	0	0	2059
64	0	0	2066
65	0	0	2087
66	0	0	2066
67	0	0	2065
68	0	0	2060
69	0	0	2063
70	0	0	2064
71	0	0	2067
72	0	0	2075
73	0	0	2063
74	0	0	2067
75	0	0	2065
76	0	0	2060
77	0	0	2063
78	0	0	2066
79	0	0	2063
80	0	0	2068
81	0	0	2066
82	0	0	2070
83	0	0	2063
84	0	0	2060
85	0	0	2062
86	0	0	2068
87	0	0	2065
88	0	0	2064
89	0	0	2063
90	0	0	2063
91	0	0	2060
92	0	0	2062
93	0	0	2062
94	0	0	2058
95	0	0	2063
96	0	0	2067
97	0	0	2068
98	0	0	2071
99	0	0	2066
100	0	0	2065
101	0	0	2064
102	0	0	2060
103	0	0	2061
104	0	0	2067
105	0	0	2066
106	0	0	2062
107	0	0	2065
108	0	0	2060
109	0	0	2059
110	0	0	2059
111	0	0	2059
112	0	0	2063
113	0	0	2060
114	0	0	2065
115	0	0	2069
116	0	0	2093
117	0	0	2084
118	0	0	2076
119	0	0	2060
120	0	0	2057
121	0	0	2068
122	0	0	2080
123	0	0	2068
124	0	0	2068
125	0	0	2069
126	0	0	2044
127	0	0	2064
0	0	0	2065
1	0	0	2065
2	0	0	2063
3	0	0	2066
4	0	0	2085
5	0	0	2075
6	0	0	2054
7	0	0	2060
8	0	0	2063
9	0	0	2060
10	0	0	2056
11	0	0	2074
12	0	0	2066
13	0	0	2066
14	0	0	2069
15	0	0	2075
16	0	0	2063
17	0	0	2058
18	0	0	2062
19	0	0	2073
20	0	0	2070
21	0	0	2067
22	0	0	2066
23	0	0	2068
24	0	0	2063
25	0	0	2075
26	0	0	2060
27	0	0	2055
28	0	0	2056
29	0	0	2081
30	0	0	2089
31	0	0	2060
32	0	0	2056
33	0	0	2064
34	0	0	2052
35	0	0	2066
36	0	0	2070
37	0	0	2062
38	0	0	2070
39	0	0	2055
40	0	0	2077
41	0	0	2065
42	0	0	2051
43	0	0	2063
44	0	0	2072
45	0	0	2068
46	0	0	2067
47	0	0	2070
48	0	0	2064
49	0	0	2064
50	0	0	2067
51	0	0	2054
52	0	0	2063
53	0	0	2078
54	0	0	2068
55	0	0	2061
56	0	0	2062
57	0	0	2063
58	0	0	2061
59	0	0	2064
60	0	0	2074
61	0	0	2064
62	0	0	2056
63	0	0	2061
64	0	0	2072
65	0	0	2074
66	0	0	2068
67	0	0	2068
68	0	0	2057
69	0	0	2065
70	0	0	2069
71	0	0	2060
72	0	0	2058
73	0	0	2066
74	0	0	2074
75	0	0	2070
76	0	0	2061
77	0	0	2069
78	0	0	2059
79	0	0	2062
80	0	0	2070
81	0	0	2063
82	0	0	2061
83	0	0	2053
84	0	0	2063
85	0	0	2070
86	0	0	2055
87	0	0	2074
88	0	0	2061
89	0	0	2072
90	0	0	2089
91	0	0	2089
92	0	0	2069
93	0	0	2065
94	0	0	2058
95	0	0	2062
96	0	0	2067
97	0	0	2066
98	0	0	2063
99	0	0	2062
100	0	0	2059
101	0	0	2062
102	0	0	2066
103	0	0	2064
104	0	0	2058
105	0	0	2060
106	0	0	2071
107	0	0	2075
108	0	0	2069
109	0	0	2077
110	0	0	2069
111	0	0	2072
112	0	0	2057
113	0	0	2056
114	0	0	2075
115	0	0	2063
116	0	0	2058
117	0	0	2083
118	0	0	2067
119	0	0	2071
120	0	0	2064
121	0	0	2071
122	0	0	2062
123	0	0	2068
124	0	0	2072
125	0	0	2074
126	0	0	2066
127	0	0	2063
0	0	0	2072
1	0	0	2066
2	0	0	2065
3	0	0	2076
4	0	0	2065
5	0	0	2057
6	0	0	2061
7	0	0	2063
8	0	0	2061
9	0	0	2083
10	0	0	2061
11	0	0	2071
12	0	0	2070
13	0	0	2065
14	0	0	2063
15	0	0	2050
16	0	0	2063
17	0	0	2090
18	0	0	2074
19	0	0	2056
20	0	0	2055
21	0	0	2058
22	0	0	2067
23	0	0	2059
24	0	0	2056
25	0	0	2057
26	0	0	2060
27	0	0	2069
28	0	0	2070
29	0	0	2056
30	0	0	2066
31	0	0	2073
32	0	0	2067
33	0	0	2075
34	0	0	2049
35	0	0	2039
36	0	0	2072
37	0	0	2098
38	0	0	2065
39	0	0	2054
40	0	0	2060
41	0	0	2064
42	0	0	2060
43	0	0	2055
44	0	0	2057
45	0	0	2077
46	0	0	2065
47	0	0	2063
48	0	0	2074
49	0	0	2052
50	0	0	2052
51	0	0	2065
52	0	0	2060
53	0	0	2063
54	0	0	2080
55	0	0	2077
56	0	0	2066
57	0	0	2061
58	0	0	2070
59	0	0	2068
60	0	0	2061
61	0	0	2062
62	0	0	2062
63	0	0	2062
64	0	0	2064
65	0	0	2062
66	0	0	2060
67	0	0	2063
68	0	0	2062
69	0	0	2087
70	0	0	2059
71	0	0	2064
72	0	0	2082
73	0	0	2076
74	0	0	2063
75	0	0	2065
76	0	0	2061
77	0	0	2054
78	0	0	2058
79	0	0	2073
80	0	0	2063
81	0	0	2063
82	0	0	2079
83	0	0	2072
84	0	0	2060
85	0	0	2058
86	0	0	2073
87	0	0	2061
88	0	0	2072
89	0	0	2060
90	0	0	2067
91	0	0	2070
92	0	0	2052
93	0	0	2081
94	0	0	2068
95	0	0	2066
96	0	0	2063
97	0	0	2060
98	0	0	2071
99	0	0	2064
100	0	0	2071
101	0	0	2058
102	0	0	2067
103	0	0	2064
104	0	0	2060
105	0	0	2068
106	0	0	2059
107	0	0	2061
108	0	0	2077
109	0	0	2066
110	0	0	2056
111	0	0	2071
112	0	0	2078
113	0	0	2066
114	0	0	2058
115	0	0	2073
116	0	0	2074
117	0	0	2059
118	0	0	2072
119	0	0	2064
120	0	0	2066
121	0	0	2049
122	0	0	2064
123	0	0	2081
124	0	0	2063
125	0	0	2058
126	0	0	2070
127	0	0	2082
0	0	0	2056
1	0	0	2071
2	0	0	2052
3	0	0	2066
4	0	0	2061
5	0	0	2062
6	0	0	2062
7	0	0	2059
8	0	0	2061
9	0	0	2070
10	0	0	2060
11	0	0	2084
12	0	0	2080
13	0	0	2070
14	0	0	2060
15	0	0	2058
16	0	0	2055
17	0	0	2061
18	0	0	2059
19	0	0	2070
20	0	0	2064
21	0	0	2060
22	0	0	2073
23	0	0	2068
24	0	0	2072
25	0	0	2060
26	0	0	2055
27	0	0	2069
28	0	0	2079
29	0	0	2058
30	0	0	2070
31	0	0	2055
32	0	0	2068
33	0	0	2061
34	0	0	2064
35	0	0	2058
36	0	0	2063
37	0	0	2073
38	0	0	2063
39	0	0	2066
40	0	0	2065
41	0	0	2076
42	0	0	2063
43	0	0	2058
44	0	0	2068
45	0	0	2068
46	0	0	2062
47	0	0	2066
48	0	0	2065
49	0	0	2068
50	0	0	2065
51	0	0	2070
52	0	0	2067
53	0	0	2051
54	0	0	2072
55	0	0	2090
56	0	0	2064
57	0	0	2069
58	0	0	2061
59	0	0	2054
60	0	0	2064
61	0	0	2072
62	0	0	2061
63	0	0	2075
64	0	0	2062
65	0	0	2072
66	0	0	2073
67	0	0	2055
68	0	0	2068
69	0	0	2063
70	0	0	2064
71	0	0	2065
72	0	0	2069
73	0	0	2068
74	0	0	2072
75	0	0	2068
76	0	0	2067
77	0	0	2064
78	0	0	2063
79	0	0	2071
80	0	0	2067
81	0	0	2070
82	0	0	2068
83	0	0	2067
84	0	0	2066
85	0	0	2064
86	0	0	2066
87	0	0	2072
88	0	0	2074
89	0	0	2072
90	0	0	2063
91	0	0	2062
92	0	0	2058
93	0	0	2064
94	0	0	2071
95	0	0	2070
96	0	0	2067
97	0	0	2065
98	0	0	2067
99	0	0	2069
100	0	0	2062
101	0	0	2061
102	0	0	2084
103	0	0	2054
104	0	0	2058
105	0	0	2083
106	0	0	2069
107	0	0	2067
108	0	0	2062
109	0	0	2060
110	0	0	2074
111	0	0	2073
112	0	0	2080
113	0	0	2051
114	0	0	2063
115	0	0	2076
116	0	0	2068
117	0	0	2063
118	0	0	2067
119	0	0	2063
120	0	0	2069
121	0	0	2066
122	0	0	2063
123	0	0	2064
124	0	0	2066
125	0	0	2072
126	0	0	2051
127	0	0	2070
0	0	0	2067
1	0	0	2075
2	0	0	2060
3	0	0	2065
4	0	0	2070
5	0	0	2068
6	0	0	2064
7	0	0	2060
8	0	0	2060
9	0	0	2069
10	0	0	2055
11	0	0	2067
12	0	0	2094
13	0	0	2099
14	0	0	2077
15	0	0	2065
16	0	0	2066
17	0	0	2051
18	0	0	2045
19	0	0	2060
20	0	0	2065
21	0	0	2066
22	0	0	2069
23	0	0	2062
24	0	0	2066
25	0	0	2069
26	0	0	2063
27	0	0	2063
28	0	0	2078
29	0	0	2043
30	0	0	2063
31	0	0	2076
32	0	0	2065
33	0	0	2060
34	0	0	2065
35	0	0	2065
36	0	0	2071
37	0	0	2064
38	0	0	2081
39	0	0	2065
40	0	0	2070
41	0	0	2061
42	0	0	2045
43	0	0	2063
44	0	0	2065
45	0	0	2063
46	0	0	2063
47	0	0	2074
48	0	0	2075
49	0	0	2097
50	0	0	2103
51	0	0	2080
52	0	0	2067
53	0	0	2045
54	0	0	2042
55	0	0	2034
56	0	0	2051
57	0	0	2079
58	0	0	2087
59	0	0	2067
60	0	0	2068
61	0	0	2054
62	0	0	2059
63	0	0	2061
64	0	0	2058
65	0	0	2067
66	0	0	2064
67	0	0	2066
68	0	0	2053
69	0	0	2054
70	0	0	2053
71	0	0	2070
72	0	0	2077
73	0	0	2064
74	0	0	2076
75	0	0	2064
76	0	0	2068
77	0	0	2079
78	0	0	2088
79	0	0	2074
80	0	0	2076
81	0	0	2079
82	0	0	2066
83	0	0	2065
84	0	0	2053
85	0	0	2050
86	0	0	2055
87	0	0	2071
88	0	0	2062
89	0	0	2040
90	0	0	2033
91	0	0	2053
92	0	0	2058
93	0	0	2071
94	0	0	2077
95	0	0	2077
96	0	0	2067
97	0	0	2095
98	0	0	2118
99	0	0	2097
100	0	0	2073
101	0	0	2032
102	0	0	2030
103	0	0	2055
104	0	0	2053
105	0	0	2057
106	0	0	2051
107	0	0	2069
108	0	0	2052
109	0	0	2061
110	0	0	2085
111	0	0	2067
112	0	0	2073
113	0	0	2066
114	0	0	2078
115	0	0	2090
116	0	0	2084
117	0	0	2055
118	0	0	2052
119	0	0	2056
120	0	0	2070
121	0	0	2064
122	0	0	2053
123	0	0	2073
124	0	0	2067
125	0	0	2052
126	0	0	2062
127	0	0	2066
0	0	0	2063
1	0	0	2084
2	0	0	2091
3	0	0	2076
4	0	0	2069
5	0	0	2073
6	0	0	2048
7	0	0	2065
8	0	0	2040
9	0	0	2023
10	0	0	2034
11	0	0	2046
12	0	0	2082
13	0	0	2064
14	0	0	2091
15	0	0	2094
16	0	0	2094
17	0	0	2090
18	0	0	2110
19	0	0	2100
20	0	0	2053
21	0	0	2036
22	0	0	2022
23	0	0	2040
24	0	0	2042
25	0	0	2053
26	0	0	2055
27	0	0	2070
28	0	0	2086
29	0	0	2084
30	0	0	2076
31	0	0	2091
32	0	0	2085
33	0	0	2041
34	0	0	2028
35	0	0	2046
36	0	0	2045
37	0	0	2033
38	0	0	2052
39	0	0	2086
40	0	0	2092
41	0	0	2060
42	0	0	2063
43	0	0	2073
44	0	0	2088
45	0	0	2081
46	0	0	2084
47	0	0	2100
48	0	0	2110
49	0	0	2090
50	0	0	2036
51	0	0	2033
52	0	0	2056
53	0	0	2044
54	0	0	2063
55	0	0	2072
56	0	0	2084
57	0	0	2063
58	0	0	2036
59	0	0	2033
60	0	0	2053
61	0	0	2075
62	0	0	2080
63	0	0	2078
64	0	0	2061
65	0	0	2057
66	0	0	2058
67	0	0	2070
68	0	0	2074
69	0	0	2056
70	0	0	2043
71	0	0	2054
72	0	0	2063
73	0	0	2061
74	0	0	2073
75	0	0	2077
76	0	0	2069
77	0	0	2079
78	0	0	2097
79	0	0	2077
80	0	0	2072
81	0	0	2074
82	0	0	2069
83	0	0	2058
84	0	0	2066
85	0	0	2067
86	0	0	2076
87	0	0	2057
88	0	0	2053
89	0	0	2054
90	0	0	2042
91	0	0	2010
92	0	0	2039
93	0	0	2038
94	0	0	2051
95	0	0	2078
96	0	0	2115
97	0	0	2140
98	0	0	2133
99	0	0	2120
100	0	0	2074
101	0	0	2057
102	0	0	2031
103	0	0	2023
104	0	0	2030
105	0	0	2037
106	0	0	2060
107	0	0	2041
108	0	0	2041
109	0	0	2041
110	0	0	2040
111	0	0	2043
112	0	0	2058
113	0	0	2067
114	0	0	2081
115	0	0	2116
116	0	0	2131
117	0	0	2117
118	0	0	2099
119	0	0	2100
120	0	0	2062
121	0	0	2036
122	0	0	2028
123	0	0	2039
124	0	0	2000
125	0	0	1971
126	0	0	2008
127	0	0	2079
0	0	0	2090
1	0	0	2123
2	0	0	2149
3	0	0	2145
4	0	0	2077
5	0	0	1989
6	0	0	1967
7	0	0	1997
8	0	0	2051
9	0	0	2122
10	0	0	2195
11	0	0	2182
12	0	0	2128
13	0	0	2090
14	0	0	2109
15	0	0	2048
16	0	0	1972
17	0	0	1987
18	0	0	2023
19	0	0	2035
20	0	0	2016
21	0	0	2019
22	0	0	2030
23	0	0	2039
24	0	0	2055
25	0	0	2105
26	0	0	2130
27	0	0	2099
28	0	0	2096
29	0	0	2060
30	0	0	2040
31	0	0	2035
32	0	0	2056
33	0	0	2079
34	0	0	2085
35	0	0	2103
36	0	0	2109
37	0	0	2087
38	0	0	2071
39	0	0	2050
40	0	0	2067
41	0	0	2043
42	0	0	2026
43	0	0	2010
44	0	0	2030
45	0	0	2036
46	0	0	2062
47	0	0	2079
48	0	0	2098
49	0	0	2106
50	0	0	2163
51	0	0	2179
52	0	0	2131
53	0	0	2056
54	0	0	2004
55	0	0	1994
56	0	0	2026
57	0	0	2038
58	0	0	2037
59	0	0	2061
60	0	0	2021
61	0	0	2019
62	0	0	2048
63	0	0	2046
64	0	0	2080
65	0	0	2119
66	0	0	2151
67	0	0	2117
68	0	0	2103
69	0	0	2023
70	0	0	2026
71	0	0	1984
72	0	0	1950
73	0	0	2014
74	0	0	2088
75	0	0	2113
76	0	0	2140
77	0	0	2188
78	0	0	2247
79	0	0	2183
80	0	0	2083
81	0	0	1966
82	0	0	1953
83	0	0	1981
84	0	0	2071
85	0	0	2066
86	0	0	2051
87	0	0	2025
88	0	0	2056
89	0	0	2059
90	0	0	2078
91	0	0	2055
92	0	0	2048
93	0	0	2056
94	0	0	2054
95	0	0	2062
96	0	0	2072
97	0	0	2064
98	0	0	2068
99	0	0	2070
100	0	0	2080
101	0	0	2086
102	0	0	2069
103	0	0	2055
104	0	0	2065
105	0	0	2059
106	0	0	2064
107	0	0	2072
108	0	0	2049
109	0	0	2047
110	0	0	2041
111	0	0	2074
112	0	0	2068
113	0	0	2066
114	0	0	2110
115	0	0	2159
116	0	0	2102
117	0	0	2037
118	0	0	2017
119	0	0	2037
120	0	0	2066
121	0	0	2065
122	0	0	2072
123	0	0	2070
124	0	0	2069
125	0	0	2055
126	0	0	2052
127	0	0	2064
0	0	0	2064
1	0	0	2092
2	0	0	2078
3	0	0	2071
4	0	0	2092
5	0	0	2071
6	0	0	2067
7	0	0	2084
8	0	0	2051
9	0	0	2035
10	0	0	2033
11	0	0	2039
12	0	0	2048
13	0	0	2061
14	0	0	2070
15	0	0	2063
16	0	0	2082
17	0	0	2096
18	0	0	2107
19	0	0	2064
20	0	0	2050
21	0	0	2053
22	0	0	2064
23	0	0	2057
24	0	0	2049
25	0	0	2055
26	0	0	2063
27	0	0	2057
28	0	0	2062
29	0	0	2075
30	0	0	2079
31	0	0	2064
32	0	0	2058
33	0	0	2067
34	0	0	2074
35	0	0	2075
36	0	0	2087
37	0	0	2063
38	0	0	2054
39	0	0	2051
40	0	0	2070
41	0	0	2080
42	0	0	2078
43	0	0	2059
44	0	0	2066
45	0	0	2064
46	0	0	2057
47	0	0	2059
48	0	0	2060
49	0	0	2059
50	0	0	2067
51	0	0	2065
52	0	0	2075
53	0	0	2078
54	0	0	2057
55	0	0	2027
56	0	0	2042
57	0	0	2018
58	0	0	2040
59	0	0	2092
60	0	0	2116
61	0	0	2146
62	0	0	2121
63	0	0	2095
64	0	0	2080
65	0	0	2056
66	0	0	2022
67	0	0	2009
68	0	0	2059
69	0	0	2067
70	0	0	2046
71	0	0	2052
72	0	0	2052
73	0	0	2055
74	0	0	2066
75	0	0	2075
76	0	0	2067
77	0	0	2057
78	0	0	2064
79	0	0	2065
80	0	0	2067
81	0	0	2063
82	0	0	2072
83	0	0	2075
84	0	0	2083
85	0	0	2050
86	0	0	2056
87	0	0	2053
88	0	0	2061
89	0	0	2065
90	0	0	2060
91	0	0	2076
92	0	0	2079
93	0	0	2104
94	0	0	2084
95	0	0	2051
96	0	0	2050
97	0	0	2041
98	0	0	2037
99	0	0	2058
100	0	0	2068
101	0	0	2075
102	0	0	2095
103	0	0	2077
104	0	0	2063
105	0	0	2061
106	0	0	2067
107	0	0	2069
108	0	0	2079
109	0	0	2085
110	0	0	2063
111	0	0	2051
112	0	0	2052
113	0	0	2064
114	0	0	2063
115	0	0	2064
116	0	0	2052
117	0	0	2062
118	0	0	2048
119	0	0	2043
120	0	0	2061
121	0	0	2084
122	0	0	2108
123	0	0	2086
124	0	0	2117
125	0	0	2064
126	0	0	2072
127	0	0	2044
0	0	0	2058
1	0	0	2049
2	0	0	2058
3	0	0	2050
4	0	0	2074
5	0	0	2087
6	0	0	2095
7	0	0	2087
8	0	0	2060
9	0	0	2052
10	0	0	2060
11	0	0	2049
12	0	0	2055
13	0	0	2062
14	0	0	2058
15	0	0	2060
16	0	0	2059
17	0	0	2062
18	0	0	2065
19	0	0	2071
20	0	0	2078
21	0	0	2061
22	0	0	2051
23	0	0	2067
24	0	0	2057
25	0	0	2063
26	0	0	2064
27	0	0	2063
28	0	0	2074
29	0	0	2091
30	0	0	2080
31	0	0	2063
32	0	0	2050
33	0	0	2068
34	0	0	2063
35	0	0	2064
36	0	0	2062
37	0	0	2061
38	0	0	2062
39	0	0	2062
40	0	0	2072
41	0	0	2071
42	0	0	2078
43	0	0	2065
44	0	0	2058
45	0	0	2073
46	0	0	2072
47	0	0	2064
48	0	0	2064
49	0	0	2047
50	0	0	2058
51	0	0	2070
52	0	0	2059
53	0	0	2061
54	0	0	2076
55	0	0	2079
56	0	0	2058
57	0	0	2060
58	0	0	2065
59	0	0	2062
60	0	0	2065
61	0	0	2073
62	0	0	2072
63	0	0	2062
64	0	0	2067
65	0	0	2060
66	0	0	2063
67	0	0	2064
68	0	0	2070
69	0	0	2055
70	0	0	2071
71	0	0	2075
72	0	0	2066
73	0	0	2064
74	0	0	2060
75	0	0	2072
76	0	0	2073
77	0	0	2070
78	0	0	2070
79	0	0	2058
80	0	0	2055
81	0	0	2053
82	0	0	2065
83	0	0	2077
84	0	0	2076
85	0	0	2072
86	0	0	2077
87	0	0	2077
88	0	0	2067
89	0	0	2055
90	0	0	2054
91	0	0	2050
92	0	0	2070
93	0	0	2077
94	0	0	2085
95	0	0	2073
96	0	0	2060
97	0	0	2086
98	0	0	2063
99	0	0	2076
100	0	0	2073
101	0	0	2059
102	0	0	2052
103	0	0	2057
104	0	0	2066
105	0	0	2069
106	0	0	2065
107	0	0	2068
108	0	0	2064
109	0	0	2059
110	0	0	2074
111	0	0	2076
112	0	0	2064
113	0	0	2062
114	0	0	2058
115	0	0	2081
116	0	0	2083
117	0	0	2070
118	0	0	2059
119	0	0	2075
120	0	0	2067
121	0	0	2054
122	0	0	2060
123	0	0	2063
124	0	0	2068
125	0	0	2061
126	0	0	2067
127	0	0	2070
0	0	0	2066
1	0	0	2073
2	0	0	2057
3	0	0	2053
4	0	0	2075
5	0	0	2073
6	0	0	2070
7	0	0	2064
8	0	0	2060
9	0	0	2066
10	0	0	2069
11	0	0	2063
12	0	0	2064
13	0	0	2063
14	0	0	2069
15	0	0	2066
16	0	0	2053
17	0	0	2069
18	0	0	2067
19	0	0	2066
20	0	0	2065
21	0	0	2062
22	0	0	2059
23	0	0	2062
24	0	0	2062
25	0	0	2061
26	0	0	2071
27	0	0	2077
28	0	0	2066
29	0	0	2063
30	0	0	2055
31	0	0	2052
32	0	0	2068
33	0	0	2078
34	0	0	2057
35	0	0	2069
36	0	0	2063
37	0	0	2074
38	0	0	2059
39	0	0	2061
40	0	0	2070
41	0	0	2064
42	0	0	2070
43	0	0	2058
44	0	0	2065
45	0	0	2061
46	0	0	2055
47	0	0	2057
48	0	0	2062
49	0	0	2061
50	0	0	2064
51	0	0	2072
52	0	0	2082
53	0	0	2063
54	0	0	2063
55	0	0	2066
56	0	0	2065
57	0	0	2068
58	0	0	2061
59	0	0	2062
60	0	0	2055
61	0	0	2064
62	0	0	2080
63	0	0	2070
64	0	0	2067
65	0	0	2068
66	0	0	2062
67	0	0	2059
68	0	0	2068
69	0	0	2065
70	0	0	2061
71	0	0	2064
72	0	0	2070
73	0	0	2070
74	0	0	2088
75	0	0	2073
76	0	0	2067
77	0	0	2058
78	0	0	2061
79	0	0	2056
80	0	0	2061
81	0	0	2068
82	0	0	2061
83	0	0	2059
84	0	0	2060
85	0	0	2057
86	0	0	2064
87	0	0	2070
88	0	0	2067
89	0	0	2070
90	0	0	2064
91	0	0	2065
92	0	0	2063
93	0	0	2065
94	0	0	2066
95	0	0	2065
96	0	0	2067
97	0	0	2063
98	0	0	2067
99	0	0	2075
100	0	0	2064
101	0	0	2062
102	0	0	2056
103	0	0	2062
104	0	0	2069
105	0	0	2063
106	0	0	2055
107	0	0	2052
108	0	0	2063
109	0	0	2081
110	0	0	2082
111	0	0	2078
112	0	0	2048
113	0	0	2052
114	0	0	2063
115	0	0	2065
116	0	0	2065
117	0	0	2063
118	0	0	2072
119	0	0	2053
120	0	0	2060
121	0	0	2068
122	0	0	2078
123	0	0	2064
124	0	0	2059
125	0	0	2057
126	0	0	2060
127	0	0	2061
0	0	0	2076
1	0	0	2064
2	0	0	2062
3	0	0	2066
4	0	0	2063
5	0	0	2073
6	0	0	2072
7	0	0	2057
8	0	0	2057
9	0	0	2061
10	0	0	2060
11	0	0	2080
12	0	0	2062
13	0	0	2053
14	0	0	2065
15	0	0	2072
16	0	0	2061
17	0	0	2087
18	0	0	2075
19	0	0	2062
20	0	0	2064
21	0	0	2068
22	0	0	2066
23	0	0	2063
24	0	0	2056
25	0	0	2057
26	0	0	2068
27	0	0	2064
28	0	0	2058
